I, II, III, aVR, aVL, aVF,V1,V2,V3,V4,V5,V6
-9,-58,-48,34,19,-53,19,9,58,29,29,-9
-9,-53,-43,31,17,-48,19,14,63,34,29,-9
-9,-48,-39,29,14,-43,19,19,68,39,29,-9
-9,-48,-39,29,14,-43,24,24,73,43,29,-9
-9,-48,-39,29,14,-43,29,29,78,48,29,-9
-9,-48,-39,29,14,-43,29,34,87,58,34,-9
-9,-48,-39,29,14,-43,29,39,97,68,39,-9
-4,-48,-43,26,19,-46,29,48,102,68,43,0
0,-48,-48,24,24,-48,29,58,107,68,48,9
0,-48,-48,24,24,-48,34,58,117,82,58,9
0,-48,-48,24,24,-48,39,58,126,97,68,9
0,-48,-48,24,24,-48,39,68,136,102,73,14
0,-48,-48,24,24,-48,39,78,146,107,78,19
0,-43,-43,21,21,-43,43,87,156,117,82,19
0,-39,-39,19,19,-39,48,97,165,126,87,19
4,-39,-43,17,24,-41,48,107,185,136,92,19
9,-39,-48,14,29,-43,48,117,204,146,97,19
9,-34,-43,12,26,-39,53,131,219,161,107,29
9,-29,-39,9,24,-34,58,146,234,175,117,39
9,-24,-34,7,21,-29,63,161,248,195,126,43
9,-19,-29,4,19,-24,68,175,263,214,136,48
9,-19,-29,4,19,-24,68,190,287,229,146,53
9,-19,-29,4,19,-24,68,204,312,244,156,58
14,-19,-34,2,24,-26,73,219,326,263,175,63
19,-19,-39,0,29,-29,78,234,341,283,195,68
19,-14,-34,-2,26,-24,82,244,361,302,209,73
19,-9,-29,-4,24,-19,87,253,380,322,224,78
19,-4,-24,-7,21,-14,87,263,395,351,244,92
19,0,-19,-9,19,-9,87,273,409,380,263,107
24,4,-19,-14,21,-7,82,283,429,405,287,122
29,9,-19,-19,24,-4,78,292,448,429,312,136
34,19,-14,-26,24,2,73,292,458,458,336,151
39,29,-9,-34,24,9,68,292,468,488,361,165
48,43,-4,-46,26,19,63,292,483,517,390,180
58,58,0,-58,29,29,58,292,497,546,419,195
58,68,9,-63,24,39,48,283,497,575,444,209
58,78,19,-68,19,48,39,273,497,605,468,224
68,82,14,-75,26,48,24,248,497,619,492,248
78,87,9,-82,34,48,9,224,497,634,517,273
87,97,9,-92,39,53,-9,200,488,653,536,287
97,107,9,-102,43,58,-29,175,478,673,556,302
102,112,9,-107,46,61,-43,146,463,673,566,312
107,117,9,-112,48,63,-58,117,448,673,575,322
117,117,0,-117,58,58,-73,82,419,668,575,322
126,117,-9,-122,68,53,-87,48,390,663,575,322
126,117,-9,-122,68,53,-102,24,361,634,556,322
126,117,-9,-122,68,53,-117,0,331,605,536,322
122,112,-9,-117,65,51,-117,-19,307,566,502,302
117,107,-9,-112,63,48,-117,-39,283,527,468,283
112,97,-14,-104,63,41,-117,-43,253,478,429,258
107,87,-19,-97,63,34,-117,-48,224,429,390,234
97,78,-19,-87,58,29,-112,-53,195,375,346,209
87,68,-19,-78,53,24,-107,-58,165,322,302,185
73,58,-14,-65,43,21,-92,-58,146,278,263,161
58,48,-9,-53,34,19,-78,-58,126,234,224,136
53,39,-14,-46,34,12,-68,-58,107,195,190,112
48,29,-19,-39,34,4,-58,-58,87,156,156,87
39,24,-14,-31,26,4,-53,-53,68,122,131,68
29,19,-9,-24,19,4,-48,-48,48,87,107,48
24,9,-14,-17,19,-2,-43,-43,39,63,78,39
19,0,-19,-9,19,-9,-39,-39,29,39,48,29
14,0,-14,-7,14,-7,-29,-34,19,29,34,19
9,0,-9,-4,9,-4,-19,-29,9,19,19,9
4,-9,-14,2,9,-12,-14,-29,4,9,9,4
0,-19,-19,9,9,-19,-9,-29,0,0,0,0
0,-19,-19,9,9,-19,-9,-24,-4,-4,-4,-4
0,-19,-19,9,9,-19,-9,-19,-9,-9,-9,-9
0,-19,-19,9,9,-19,-9,-19,-14,-19,-14,-9
0,-19,-19,9,9,-19,-9,-19,-19,-29,-19,-9
0,-19,-19,9,9,-19,-9,-19,-19,-34,-24,-14
0,-19,-19,9,9,-19,-9,-19,-19,-39,-29,-19
-4,-19,-14,12,4,-17,-9,-19,-24,-43,-34,-19
-9,-19,-9,14,0,-14,-9,-19,-29,-48,-39,-19
-9,-19,-9,14,0,-14,-9,-19,-29,-48,-39,-24
-9,-19,-9,14,0,-14,-9,-19,-29,-48,-39,-29
-4,-19,-14,12,4,-17,-9,-19,-29,-48,-39,-34
0,-19,-19,9,9,-19,-9,-19,-29,-48,-39,-39
0,-19,-19,9,9,-19,-9,-19,-29,-48,-39,-39
0,-19,-19,9,9,-19,-9,-19,-29,-48,-39,-39
0,-19,-19,9,9,-19,-4,-19,-29,-48,-39,-34
0,-19,-19,9,9,-19,0,-19,-29,-48,-39,-29
-4,-19,-14,12,4,-17,0,-24,-29,-48,-39,-29
-9,-19,-9,14,0,-14,0,-29,-29,-48,-39,-29
-9,-19,-9,14,0,-14,0,-29,-29,-48,-39,-29
-9,-19,-9,14,0,-14,0,-29,-29,-48,-39,-29
-9,-19,-9,14,0,-14,-4,-29,-29,-43,-39,-29
-9,-19,-9,14,0,-14,-9,-29,-29,-39,-39,-29
-9,-19,-9,14,0,-14,-9,-34,-29,-39,-39,-24
-9,-19,-9,14,0,-14,-9,-39,-29,-39,-39,-19
-9,-14,-4,12,-2,-9,-9,-39,-29,-34,-39,-19
-9,-9,0,9,-4,-4,-9,-39,-29,-29,-39,-19
-9,-9,0,9,-4,-4,-9,-34,-29,-29,-34,-19
-9,-9,0,9,-4,-4,-9,-29,-29,-29,-29,-19
-4,-9,-4,7,0,-7,-9,-29,-29,-29,-29,-19
0,-9,-9,4,4,-9,-9,-29,-29,-29,-29,-19
0,-9,-9,4,4,-9,-14,-34,-29,-29,-29,-19
0,-9,-9,4,4,-9,-19,-39,-29,-29,-29,-19
0,-9,-9,4,4,-9,-19,-39,-29,-24,-29,-19
0,-9,-9,4,4,-9,-19,-39,-29,-19,-29,-19
0,-9,-9,4,4,-9,-19,-39,-29,-19,-24,-14
0,-9,-9,4,4,-9,-19,-39,-29,-19,-19,-9
0,-9,-9,4,4,-9,-19,-43,-29,-19,-19,-9
0,-9,-9,4,4,-9,-19,-48,-29,-19,-19,-9
0,-9,-9,4,4,-9,-19,-48,-34,-24,-19,-9
0,-9,-9,4,4,-9,-19,-48,-39,-29,-19,-9
4,-9,-14,2,9,-12,-24,-48,-39,-29,-19,-9
9,-9,-19,0,14,-14,-29,-48,-39,-29,-19,-9
9,-9,-19,0,14,-14,-29,-48,-39,-29,-19,-9
9,-9,-19,0,14,-14,-29,-48,-39,-29,-19,-9
4,-9,-14,2,9,-12,-29,-48,-39,-29,-14,-9
0,-9,-9,4,4,-9,-29,-48,-39,-29,-9,-9
0,-9,-9,4,4,-9,-29,-48,-43,-29,-9,-9
0,-9,-9,4,4,-9,-29,-48,-48,-29,-9,-9
0,-9,-9,4,4,-9,-29,-53,-48,-29,-14,-9
0,-9,-9,4,4,-9,-29,-58,-48,-29,-19,-9
0,-14,-14,7,7,-14,-29,-58,-48,-34,-19,-14
0,-19,-19,9,9,-19,-29,-58,-48,-39,-19,-19
4,-19,-24,7,14,-21,-29,-58,-48,-39,-19,-19
9,-19,-29,4,19,-24,-29,-58,-48,-39,-19,-19
9,-19,-29,4,19,-24,-29,-58,-48,-39,-19,-19
9,-19,-29,4,19,-24,-29,-58,-48,-39,-19,-19
4,-19,-24,7,14,-21,-29,-58,-48,-39,-19,-19
0,-19,-19,9,9,-19,-29,-58,-48,-39,-19,-19
0,-19,-19,9,9,-19,-29,-58,-48,-39,-19,-19
0,-19,-19,9,9,-19,-29,-58,-48,-39,-19,-19
0,-19,-19,9,9,-19,-29,-58,-48,-39,-19,-14
0,-19,-19,9,9,-19,-29,-58,-48,-39,-19,-9
0,-19,-19,9,9,-19,-29,-58,-48,-39,-19,-9
0,-19,-19,9,9,-19,-29,-58,-48,-39,-19,-9
0,-19,-19,9,9,-19,-29,-58,-48,-39,-19,-9
0,-19,-19,9,9,-19,-29,-58,-48,-39,-19,-9
0,-19,-19,9,9,-19,-29,-58,-48,-39,-19,-9
0,-19,-19,9,9,-19,-29,-58,-48,-39,-19,-9
0,-19,-19,9,9,-19,-29,-58,-48,-34,-19,-9
0,-19,-19,9,9,-19,-29,-58,-48,-29,-19,-9
4,-9,-14,2,9,-12,-29,-58,-43,-29,-19,-9
9,0,-9,-4,9,-4,-29,-58,-39,-29,-19,-9
14,9,-4,-12,9,2,-34,-58,-34,-24,-14,-4
19,19,0,-19,9,9,-39,-58,-29,-19,-9,0
19,39,19,-29,0,29,-39,-63,-24,-9,-4,4
19,58,39,-39,-9,48,-39,-68,-19,0,0,9
24,63,39,-43,-7,51,-43,-68,-19,0,0,14
29,68,39,-48,-4,53,-48,-68,-19,0,0,19
29,68,39,-48,-4,53,-53,-68,-14,0,0,19
29,68,39,-48,-4,53,-58,-68,-9,0,0,14
34,73,39,-53,-2,56,-63,-73,-9,0,0,14
34,97,63,-65,-14,80,-73,-78,-9,0,4,14
39,122,82,-80,-21,102,-92,-97,-4,0,4,19
43,141,97,-92,-26,119,-112,-131,-4,4,9,34
48,151,102,-100,-26,126,-136,-136,-4,14,19,43
53,146,92,-100,-19,119,-136,-131,-9,14,24,53
53,141,87,-97,-17,114,-131,-131,-9,14,29,53
53,141,87,-97,-17,114,-122,-112,-4,24,34,63
63,136,73,-100,-4,104,-112,-102,9,39,43,68
68,131,63,-100,2,97,-97,-102,9,48,53,73
68,126,58,-97,4,92,-87,-102,4,43,48,68
68,112,43,-90,12,78,-87,-102,-4,39,43,68
63,102,39,-82,12,70,-87,-107,-19,24,34,68
48,73,24,-61,12,48,-82,-107,-39,4,9,53
24,39,14,-31,4,26,-68,-107,-53,-14,-9,34
9,9,0,-9,4,4,-58,-107,-68,-34,-29,4
-4,0,4,2,-4,2,-53,-102,-73,-53,-43,-9
-4,-14,-9,9,2,-12,-43,-97,-68,-53,-43,-14
-4,-19,-14,12,4,-17,-34,-92,-68,-58,-43,-24
-4,-29,-24,17,9,-26,-29,-87,-68,-58,-48,-24
-4,-34,-29,19,12,-31,-29,-78,-68,-58,-48,-24
0,-39,-39,19,19,-39,-24,-73,-68,-58,-48,-29
0,-39,-39,19,19,-39,-24,-73,-68,-58,-48,-29
0,-39,-39,19,19,-39,-29,-73,-68,-58,-48,-29
0,-39,-39,19,19,-39,-29,-68,-68,-58,-48,-29
0,-39,-39,19,19,-39,-29,-68,-68,-58,-48,-34
4,-39,-43,17,24,-41,-29,-68,-68,-58,-48,-34
4,-43,-48,19,26,-46,-29,-68,-68,-58,-48,-34
4,-43,-48,19,26,-46,-29,-68,-68,-58,-48,-24
4,-43,-48,19,26,-46,-29,-68,-68,-58,-48,-19
0,-43,-43,21,21,-43,-29,-68,-63,-53,-48,-19
-4,-43,-39,24,17,-41,-29,-63,-63,-53,-48,-19
-4,-39,-34,21,14,-36,-29,-63,-58,-53,-48,-19
-4,-39,-34,21,14,-36,-29,-63,-58,-53,-43,-19
-4,-43,-39,24,17,-41,-24,-58,-58,-48,-48,-29
-4,-43,-39,24,17,-41,-19,-48,-53,-48,-58,-43
-19,-53,-34,36,7,-43,-4,-34,-24,-58,-78,-58
-34,-68,-34,51,0,-51,24,-9,0,-78,-122,-102
-43,-78,-34,61,-4,-56,63,78,107,-34,-126,-141
-39,-73,-34,56,-2,-53,136,263,312,58,-92,-165
-24,-43,-19,34,-2,-31,219,468,575,297,53,-126
-14,-4,9,9,-12,2,336,629,819,580,229,-82
-34,73,107,-19,-70,90,405,663,878,707,283,-73
-48,180,229,-65,-139,204,419,697,873,766,297,-53
-117,195,312,-39,-214,253,419,663,429,92,-131,-180
-219,141,361,39,-290,251,341,405,-668,-1459,-1156,-473
-424,-92,331,258,-378,119,239,-9,-2054,-2879,-2103,-810
-585,-473,112,529,-348,-180,219,-346,-3074,-3333,-2337,-995
-580,-614,-34,597,-273,-324,146,-512,-3235,-3069,-2142,-951
-463,-536,-73,500,-195,-305,-39,-634,-2601,-2327,-1703,-795
-351,-434,-82,392,-134,-258,-78,-561,-1927,-1678,-1293,-658
-204,-385,-180,295,-12,-283,-4,-253,-1195,-1044,-834,-458
-117,-317,-200,217,41,-258,58,-58,-692,-605,-497,-302
-107,-244,-136,175,14,-190,87,9,-405,-356,-297,-190
-87,-161,-73,124,-7,-117,68,-9,-253,-209,-170,-112
-53,-78,-24,65,-14,-51,4,-58,-190,-141,-112,-63
-24,-43,-19,34,-2,-31,-14,-58,-131,-92,-78,-39
-24,-43,-19,34,-2,-31,-14,-43,-78,-53,-43,-24
-24,-43,-19,34,-2,-31,-9,-29,-48,-34,-24,-14
-19,-43,-24,31,2,-34,-9,-19,-39,-39,-29,-14
-9,-43,-34,26,12,-39,-9,-19,-24,-29,-24,-14
-9,-48,-39,29,14,-43,-9,-24,-9,-19,-14,-4
-4,-48,-43,26,19,-46,-9,-24,0,-9,-14,-4
0,-48,-48,24,24,-48,-9,-19,9,-4,-9,0
0,-48,-48,24,24,-48,-9,-19,14,0,-4,0
0,-43,-43,21,21,-43,-9,-19,19,9,0,4
0,-43,-43,21,21,-43,-9,-14,29,9,4,4
-4,-43,-39,24,17,-41,-4,-14,34,14,4,4
-4,-39,-34,21,14,-36,0,-9,34,19,9,4
-4,-34,-29,19,12,-31,4,-9,39,19,14,4
-4,-34,-29,19,12,-31,4,-4,43,24,14,4
-4,-34,-29,19,12,-31,9,0,48,24,14,4
-4,-34,-29,19,12,-31,9,0,58,29,14,4
0,-29,-29,14,14,-29,9,9,68,29,14,0
4,-29,-34,12,19,-31,14,14,68,29,14,0
9,-34,-43,12,26,-39,14,14,78,34,14,4
9,-34,-43,12,26,-39,24,19,82,43,19,4
9,-29,-39,9,24,-34,24,19,82,48,19,4
9,-29,-39,9,24,-34,24,24,92,53,19,4
9,-29,-39,9,24,-34,29,29,102,53,24,4
14,-24,-39,4,26,-31,29,34,107,68,29,9
14,-24,-39,4,26,-31,29,43,117,78,34,9
9,-24,-34,7,21,-29,34,48,131,78,43,14
4,-24,-29,9,17,-26,34,48,141,82,48,14
4,-24,-29,9,17,-26,34,58,146,92,53,19
4,-24,-29,9,17,-26,39,68,151,97,63,19
4,-24,-29,9,17,-26,39,73,161,107,68,24
4,-24,-29,9,17,-26,43,82,170,112,73,24
4,-24,-29,9,17,-26,48,97,190,131,78,24
4,-19,-24,7,14,-21,48,107,209,146,82,29
9,-19,-29,4,19,-24,53,122,219,156,87,34
19,-14,-34,-2,26,-24,58,136,239,170,97,34
19,-9,-29,-4,24,-19,63,141,248,185,102,39
19,-9,-29,-4,24,-19,73,156,268,200,107,43
14,0,-14,-7,14,-7,78,175,283,214,117,43
14,4,-9,-9,12,-2,78,195,297,229,126,39
14,4,-9,-9,12,-2,87,209,322,253,141,48
14,9,-4,-12,9,2,87,219,341,273,156,53
14,14,0,-14,7,7,92,234,356,287,165,68
14,19,4,-17,4,12,97,244,375,307,185,78
14,24,9,-19,2,17,97,263,395,331,204,87
14,34,19,-24,-2,26,102,268,419,356,224,97
14,34,19,-24,-2,26,102,273,434,390,248,107
14,39,24,-26,-4,31,102,283,458,414,278,117
19,53,34,-36,-7,43,102,292,473,439,292,131
24,63,39,-43,-7,51,97,292,492,468,312,141
29,73,43,-51,-7,58,92,297,512,502,346,165
39,78,39,-58,0,58,87,297,517,531,366,175
53,82,29,-68,12,56,78,292,527,556,390,200
58,92,34,-75,12,63,68,273,536,580,419,209
63,102,39,-82,12,70,58,263,536,600,444,234
73,112,39,-92,17,75,39,239,536,624,473,248
82,131,48,-107,17,90,19,214,522,639,483,268
92,146,53,-119,19,100,-4,185,517,653,497,278
97,151,53,-124,21,102,-24,156,502,663,517,283
102,161,58,-131,21,109,-48,122,483,663,527,292
112,161,48,-136,31,104,-63,97,463,668,546,302
112,165,53,-139,29,109,-73,63,439,668,546,312
117,161,43,-139,36,102,-92,24,414,653,536,312
117,156,39,-136,39,97,-102,0,385,629,517,312
122,156,34,-139,43,95,-117,-24,356,585,502,307
122,146,24,-134,48,85,-122,-39,326,546,473,287
122,141,19,-131,51,80,-122,-58,292,502,439,268
112,126,14,-119,48,70,-122,-63,258,448,400,248
102,117,14,-109,43,65,-117,-73,224,390,356,229
97,107,9,-102,43,58,-112,-78,195,341,307,200
87,87,0,-87,43,43,-102,-73,180,292,268,170
78,73,-4,-75,41,34,-87,-68,156,258,229,151
68,63,-4,-65,36,29,-78,-68,126,209,200,126
58,53,-4,-56,31,24,-68,-63,107,175,165,107
53,48,-4,-51,29,21,-63,-63,87,141,136,82
43,39,-4,-41,24,17,-53,-58,73,112,107,63
39,34,-4,-36,21,14,-48,-53,58,78,82,53
29,24,-4,-26,17,9,-43,-48,43,58,63,43
29,14,-14,-21,21,0,-39,-48,34,39,43,34
24,9,-14,-17,19,-2,-34,-39,24,19,24,24
19,9,-9,-14,14,0,-29,-39,9,0,14,9
19,4,-14,-12,17,-4,-24,-39,0,-9,4,4
14,0,-14,-7,14,-7,-24,-34,-4,-14,0,4
9,0,-9,-4,9,-4,-19,-34,-9,-24,-4,0
4,0,-4,-2,4,-2,-14,-29,-9,-24,-4,-4
4,-4,-9,0,7,-7,-14,-29,-14,-24,-9,-4
4,-4,-9,0,7,-7,-14,-29,-14,-34,-14,-9
4,-9,-14,2,9,-12,-9,-29,-9,-39,-24,-14
4,-9,-14,2,9,-12,-9,-29,-9,-43,-24,-14
4,-9,-14,2,9,-12,-9,-29,-14,-48,-24,-19
4,-4,-9,0,7,-7,-9,-29,-19,-48,-34,-19
4,0,-4,-2,4,-2,-9,-34,-29,-53,-34,-19
4,0,-4,-2,4,-2,-9,-34,-29,-53,-34,-24
0,0,0,0,0,0,-14,-34,-29,-58,-39,-24
0,-4,-4,2,2,-4,-14,-29,-29,-58,-43,-24
0,-4,-4,2,2,-4,-14,-24,-29,-58,-43,-24
0,-4,-4,2,2,-4,-14,-24,-29,-58,-43,-24
0,-4,-4,2,2,-4,-14,-24,-29,-58,-43,-24
0,-4,-4,2,2,-4,-14,-29,-29,-58,-43,-24
0,0,0,0,0,0,-14,-34,-29,-58,-43,-24
0,0,0,0,0,0,-19,-34,-29,-58,-43,-24
-4,-4,0,4,-2,-2,-19,-34,-34,-58,-43,-24
-4,-4,0,4,-2,-2,-19,-39,-34,-58,-43,-24
-4,0,4,2,-4,2,-19,-39,-34,-53,-43,-24
-4,0,4,2,-4,2,-19,-39,-29,-53,-34,-24
0,0,0,0,0,0,-19,-39,-29,-53,-29,-24
0,0,0,0,0,0,-19,-39,-29,-48,-34,-24
0,0,0,0,0,0,-24,-43,-29,-43,-34,-19
4,4,0,-4,2,2,-24,-43,-29,-39,-39,-19
9,4,-4,-7,7,0,-24,-43,-24,-34,-39,-19
9,4,-4,-7,7,0,-24,-43,-24,-34,-34,-19
9,4,-4,-7,7,0,-24,-43,-24,-34,-34,-14
4,4,0,-4,2,2,-24,-43,-24,-34,-34,-14
4,4,0,-4,2,2,-24,-48,-24,-29,-29,-14
4,4,0,-4,2,2,-24,-53,-24,-34,-29,-9
4,4,0,-4,2,2,-24,-53,-24,-39,-29,-9
4,0,-4,-2,4,-2,-24,-48,-24,-34,-24,-9
4,-4,-9,0,7,-7,-24,-43,-29,-34,-24,-9
9,-4,-14,-2,12,-9,-29,-43,-29,-39,-24,-9
9,-4,-14,-2,12,-9,-29,-43,-29,-39,-24,-9
9,0,-9,-4,9,-4,-24,-48,-34,-39,-24,-4
9,4,-4,-7,7,0,-19,-48,-34,-39,-24,0
9,0,-9,-4,9,-4,-19,-48,-29,-34,-24,0
9,0,-9,-4,9,-4,-24,-48,-24,-29,-24,0
9,0,-9,-4,9,-4,-24,-53,-29,-29,-24,0
9,0,-9,-4,9,-4,-24,-53,-29,-29,-24,0
9,-4,-14,-2,12,-9,-24,-53,-34,-29,-24,0
9,-9,-19,0,14,-14,-24,-53,-39,-29,-24,0
9,-9,-19,0,14,-14,-29,-53,-39,-29,-24,-4
14,-9,-24,-2,19,-17,-34,-53,-39,-29,-24,-9
14,-14,-29,0,21,-21,-34,-53,-34,-29,-24,-9
9,-14,-24,2,17,-19,-34,-53,-29,-34,-24,-9
9,-9,-19,0,14,-14,-29,-53,-29,-34,-24,-9
9,-4,-14,-2,12,-9,-24,-58,-29,-34,-24,-9
14,-4,-19,-4,17,-12,-29,-58,-39,-39,-24,-9
14,-4,-19,-4,17,-12,-29,-58,-43,-43,-24,-9
9,-4,-14,-2,12,-9,-34,-58,-43,-43,-24,-9
9,-9,-19,0,14,-14,-39,-58,-43,-43,-24,-9
9,-9,-19,0,14,-14,-39,-58,-43,-43,-24,-9
9,-9,-19,0,14,-14,-39,-63,-48,-43,-24,-9
9,-4,-14,-2,12,-9,-34,-63,-48,-39,-24,-9
9,-4,-14,-2,12,-9,-29,-63,-43,-39,-24,-9
4,-4,-9,0,7,-7,-29,-63,-43,-39,-24,-4
4,-9,-14,2,9,-12,-29,-63,-43,-39,-24,-4
4,-9,-14,2,9,-12,-29,-63,-48,-43,-24,-4
4,-9,-14,2,9,-12,-29,-63,-48,-48,-24,-4
4,-9,-14,2,9,-12,-29,-63,-48,-48,-24,-9
4,-9,-14,2,9,-12,-29,-63,-48,-48,-24,-14
4,-9,-14,2,9,-12,-34,-63,-48,-48,-19,-14
0,-9,-9,4,4,-9,-39,-63,-48,-48,-19,-9
0,-9,-9,4,4,-9,-39,-63,-48,-48,-19,-9
0,-9,-9,4,4,-9,-39,-63,-53,-48,-19,-9
0,-9,-9,4,4,-9,-39,-63,-53,-48,-24,-9
0,-9,-9,4,4,-9,-39,-63,-53,-48,-29,-9
0,-14,-14,7,7,-14,-39,-63,-48,-48,-29,-9
0,-14,-14,7,7,-14,-39,-63,-48,-48,-29,-9
0,-14,-14,7,7,-14,-39,-63,-48,-48,-24,-9
0,-14,-14,7,7,-14,-39,-63,-48,-48,-19,-9
4,0,-4,-2,4,-2,-39,-63,-39,-39,-14,-4
14,9,-4,-12,9,2,-39,-68,-34,-34,-9,0
19,34,14,-26,2,24,-43,-68,-24,-24,-4,4
29,58,29,-43,0,43,-48,-68,-19,-19,0,9
29,68,39,-48,-4,53,-48,-68,-14,-14,4,14
29,78,48,-53,-9,63,-48,-68,-9,-9,9,19
29,78,48,-53,-9,63,-48,-68,-9,-9,9,19
29,73,43,-51,-7,58,-48,-68,-9,-9,4,14
34,68,34,-51,0,51,-53,-68,-9,-9,4,14
34,78,43,-56,-4,61,-63,-68,-9,-9,4,14
34,102,68,-68,-17,85,-82,-87,-4,-4,4,19
34,122,87,-78,-26,104,-102,-122,-4,4,9,34
34,136,102,-85,-34,119,-131,-136,-4,14,19,43
34,136,102,-85,-34,119,-136,-141,-9,14,24,53
43,131,87,-87,-21,109,-136,-141,-9,14,29,53
53,131,78,-92,-12,104,-131,-122,-4,24,34,63
68,131,63,-100,2,97,-122,-107,9,39,43,68
78,131,53,-104,12,92,-107,-102,9,48,53,73
78,136,58,-107,9,97,-97,-102,9,48,53,73
78,131,53,-104,12,92,-97,-102,4,48,53,78
78,122,43,-100,17,82,-97,-107,-9,34,48,78
68,92,24,-80,21,58,-92,-107,-29,14,29,63
43,58,14,-51,14,36,-78,-107,-43,-4,9,43
29,29,0,-29,14,14,-68,-107,-58,-24,-9,14
4,14,9,-9,-2,12,-58,-107,-68,-43,-34,0
-4,-4,0,4,-2,-2,-43,-107,-68,-43,-43,-4
-4,-9,-4,7,0,-7,-34,-102,-68,-48,-43,-19
-4,-19,-14,12,4,-17,-29,-97,-68,-48,-48,-24
-4,-24,-19,14,7,-21,-29,-87,-68,-48,-48,-24
0,-29,-29,14,14,-29,-24,-82,-68,-48,-48,-29
0,-34,-34,17,17,-34,-19,-82,-68,-53,-48,-29
0,-39,-39,19,19,-39,-19,-82,-68,-58,-48,-29
0,-39,-39,19,19,-39,-19,-78,-68,-58,-48,-29
0,-39,-39,19,19,-39,-19,-78,-68,-58,-48,-34
0,-34,-34,17,17,-34,-19,-78,-68,-53,-48,-34
-4,-34,-29,19,12,-31,-19,-78,-68,-48,-48,-34
-4,-34,-29,19,12,-31,-19,-78,-68,-48,-48,-29
-4,-34,-29,19,12,-31,-19,-78,-68,-48,-48,-29
-4,-39,-34,21,14,-36,-19,-78,-63,-39,-43,-29
-4,-43,-39,24,17,-41,-19,-73,-63,-34,-39,-29
-4,-39,-34,21,14,-36,-19,-73,-58,-34,-39,-24
-4,-39,-34,21,14,-36,-19,-73,-58,-34,-34,-19
-4,-39,-34,21,14,-36,-19,-73,-58,-29,-34,-14
-4,-34,-29,19,12,-31,-19,-68,-53,-29,-39,-14
-19,-43,-24,31,2,-34,-14,-68,-43,-39,-58,-29
-34,-58,-24,46,-4,-41,4,-58,-39,-58,-102,-73
-58,-73,-14,65,-21,-43,39,-39,-34,-122,-180,-141
-68,-73,-4,70,-31,-39,107,78,68,-136,-219,-195
-43,-63,-19,53,-12,-41,190,356,400,102,-58,-156
-24,-43,-19,34,-2,-31,307,590,712,385,131,-112
-34,34,68,0,-51,51,400,634,878,717,312,-78
-39,141,180,-51,-109,161,439,678,980,980,453,-34
0,229,229,-114,-114,229,448,805,1044,863,414,14
4,248,244,-126,-119,246,380,707,453,-131,-219,-102
-287,53,341,117,-314,197,263,185,-1439,-2254,-1639,-566
-536,-287,248,412,-392,-19,229,-258,-2967,-3411,-2347,-878
-610,-522,87,566,-348,-217,146,-536,-3416,-3313,-2259,-897
-570,-536,34,553,-302,-251,-48,-771,-3069,-2737,-1927,-805
-434,-439,-4,436,-214,-222,-112,-741,-2352,-2030,-1517,-712
-263,-395,-131,329,-65,-263,-63,-478,-1576,-1337,-1058,-556
-165,-341,-175,253,4,-258,39,-185,-927,-795,-649,-370
-146,-283,-136,214,-4,-209,107,-19,-492,-444,-375,-229
-117,-185,-68,151,-24,-126,87,-29,-312,-263,-219,-141
-73,-87,-14,80,-29,-51,24,-68,-219,-161,-131,-82
-39,-43,-4,41,-17,-24,0,-73,-146,-112,-97,-53
-34,-34,0,34,-17,-17,-4,-63,-78,-73,-63,-34
-29,-34,-4,31,-12,-19,0,-39,-48,-39,-34,-24
-19,-34,-14,26,-2,-24,0,-19,-39,-29,-29,-24
-14,-29,-14,21,0,-21,0,-19,-24,-19,-24,-24
-19,-29,-9,24,-4,-19,0,-24,-9,-9,-14,-14
-19,-29,-9,24,-4,-19,4,-24,4,4,-14,-14
-19,-29,-9,24,-4,-19,9,-19,19,14,-9,-9
-19,-34,-14,26,-2,-24,9,-19,24,14,-4,-4
-19,-34,-14,26,-2,-24,9,-19,29,19,0,4
-9,-34,-24,21,7,-29,9,-14,39,19,4,4
-4,-34,-29,19,12,-31,14,-14,43,24,4,4
-4,-34,-29,19,12,-31,14,-9,43,24,4,4
-4,-34,-29,19,12,-31,14,-9,48,19,4,4
-4,-34,-29,19,12,-31,14,-4,53,24,4,4
-4,-34,-29,19,12,-31,19,0,58,24,4,4
-9,-34,-24,21,7,-29,19,0,63,29,9,4
-9,-29,-19,19,4,-24,19,9,68,29,14,0
-9,-24,-14,17,2,-19,24,14,68,29,14,0
-9,-24,-14,17,2,-19,24,14,78,34,14,4
-9,-24,-14,17,2,-19,29,24,82,39,19,4
-9,-19,-9,14,0,-14,24,29,82,39,19,4
-4,-19,-14,12,4,-17,24,34,92,43,14,0
0,-19,-19,9,9,-19,29,39,102,43,14,-4
4,-14,-19,4,12,-17,29,43,107,53,19,0
4,-14,-19,4,12,-17,29,53,117,58,24,0
4,-14,-19,4,12,-17,34,58,126,58,29,4
4,-14,-19,4,12,-17,34,58,131,63,29,4
0,-14,-14,7,7,-14,34,68,136,73,34,9
-4,-14,-9,9,2,-12,39,78,141,78,43,9
-4,-14,-9,9,2,-12,39,78,151,87,48,14
-4,-14,-9,9,2,-12,43,82,161,92,53,14
-4,-14,-9,9,2,-12,53,97,175,107,58,14
-4,-9,-4,7,0,-7,58,107,190,117,63,19
0,-9,-9,4,4,-9,63,122,200,122,68,24
9,-4,-14,-2,12,-9,68,136,219,131,78,24
9,0,-9,-4,9,-4,73,146,229,146,82,29
9,0,-9,-4,9,-4,82,165,248,161,87,34
4,4,0,-4,2,2,87,185,263,175,97,39
4,4,0,-4,2,2,87,204,278,190,107,39
4,4,0,-4,2,2,97,219,297,209,122,48
4,9,4,-7,0,7,97,229,312,224,136,53
4,14,9,-9,-2,12,102,248,326,239,146,63
4,19,14,-12,-4,17,107,263,346,258,165,68
4,24,19,-14,-7,21,107,283,361,278,180,78
4,34,29,-19,-12,31,112,287,380,297,195,87
9,34,24,-21,-7,29,112,297,390,326,214,97
14,39,24,-26,-4,31,112,312,409,346,239,107
19,53,34,-36,-7,43,112,326,424,370,253,117
24,63,39,-43,-7,51,107,331,444,400,273,122
19,73,53,-46,-17,63,102,336,463,429,307,146
19,78,58,-48,-19,68,97,336,468,453,326,156
34,87,53,-61,-9,70,87,331,478,478,351,180
39,102,63,-70,-12,82,78,312,488,502,380,190
43,112,68,-78,-12,90,73,302,488,527,405,214
53,122,68,-87,-7,95,58,278,488,556,434,229
63,136,73,-100,-4,104,43,253,473,570,448,248
73,146,73,-109,0,109,24,224,468,585,468,258
82,151,68,-117,7,109,0,190,458,600,488,268
92,161,68,-126,12,114,-29,151,444,605,497,283
102,165,63,-134,19,114,-48,122,429,610,517,292
102,175,73,-139,14,124,-63,82,409,610,517,302
107,175,68,-141,19,122,-82,43,390,605,522,302
107,175,68,-141,19,122,-92,19,366,590,517,302
112,175,63,-143,24,119,-112,-4,341,556,502,307
112,165,53,-139,29,109,-122,-19,317,527,473,297
112,161,48,-136,31,104,-122,-43,292,492,444,278
102,146,43,-124,29,95,-122,-53,268,448,409,258
97,131,34,-114,31,82,-122,-63,239,400,370,239
97,117,19,-107,39,68,-122,-68,214,361,326,209
87,102,14,-95,36,58,-112,-68,200,312,292,180
78,92,14,-85,31,53,-97,-68,175,278,258,161
68,82,14,-75,26,48,-87,-68,146,229,224,141
58,73,14,-65,21,43,-78,-63,126,195,185,126
53,63,9,-58,21,36,-73,-63,107,161,156,102
43,48,4,-46,19,26,-63,-58,92,131,126,82
39,43,4,-41,17,24,-53,-53,78,102,102,73
29,34,4,-31,12,19,-43,-48,63,87,82,63
29,24,-4,-26,17,9,-39,-48,53,68,63,48
24,19,-4,-21,14,7,-34,-39,43,48,43,34
19,19,0,-19,9,9,-29,-39,34,29,34,19
19,14,-4,-17,12,4,-24,-39,29,19,24,14
14,4,-9,-9,12,-2,-24,-34,24,9,14,14
9,0,-9,-4,9,-4,-19,-34,19,-4,4,9
9,0,-9,-4,9,-4,-14,-29,14,-4,4,4
14,-4,-19,-4,17,-12,-14,-29,4,-4,0,4
14,-4,-19,-4,17,-12,-14,-29,0,-14,-4,0
14,-9,-24,-2,19,-17,-9,-29,0,-19,-14,-4
9,-9,-19,0,14,-14,-9,-29,0,-24,-14,-4
4,-9,-14,2,9,-12,-9,-29,-4,-29,-14,-9
4,-9,-14,2,9,-12,-14,-24,-4,-29,-24,-14
4,-9,-14,2,9,-12,-19,-24,-9,-34,-24,-19
4,-9,-14,2,9,-12,-14,-24,-9,-34,-24,-24
0,-9,-9,4,4,-9,-14,-24,-9,-39,-29,-24
0,-14,-14,7,7,-14,-14,-24,-9,-39,-39,-24
0,-14,-14,7,7,-14,-14,-24,-9,-39,-43,-24
0,-14,-14,7,7,-14,-14,-24,-9,-39,-43,-24
0,-14,-14,7,7,-14,-14,-24,-9,-39,-43,-24
0,-14,-14,7,7,-14,-14,-24,-9,-39,-43,-24
0,-9,-9,4,4,-9,-14,-24,-9,-39,-43,-24
0,-9,-9,4,4,-9,-19,-24,-9,-39,-43,-24
-4,-14,-9,9,2,-12,-19,-24,-14,-39,-43,-24
-4,-14,-9,9,2,-12,-19,-29,-14,-39,-43,-24
-4,-9,-4,7,0,-7,-19,-29,-14,-34,-43,-24
-4,-9,-4,7,0,-7,-19,-29,-14,-34,-39,-24
0,-9,-9,4,4,-9,-19,-29,-19,-34,-39,-24
0,-9,-9,4,4,-9,-14,-29,-19,-34,-43,-24
0,-9,-9,4,4,-9,-14,-34,-19,-34,-43,-19
0,-4,-4,2,2,-4,-14,-39,-19,-29,-43,-19
0,-4,-4,2,2,-4,-14,-43,-14,-24,-39,-19
0,-4,-4,2,2,-4,-14,-43,-14,-24,-34,-19
0,-4,-4,2,2,-4,-14,-43,-14,-24,-34,-14
0,-4,-4,2,2,-4,-14,-39,-14,-24,-34,-14
4,-4,-9,0,7,-7,-14,-39,-14,-19,-29,-14
0,-4,-4,2,2,-4,-14,-43,-14,-19,-29,-9
-4,-4,0,4,-2,-2,-14,-43,-14,-19,-29,-9
-4,-9,-4,7,0,-7,-14,-43,-9,-14,-24,-9
-4,-14,-9,9,2,-12,-14,-43,-9,-14,-24,-9
0,-14,-14,7,7,-14,-19,-43,-9,-19,-24,-9
0,-14,-14,7,7,-14,-19,-43,-9,-19,-24,-9
0,-14,-14,7,7,-14,-19,-48,-14,-19,-24,-9
0,-14,-14,7,7,-14,-19,-48,-14,-19,-24,-9
0,-19,-19,9,9,-19,-19,-48,-14,-19,-24,-9
0,-19,-19,9,9,-19,-24,-48,-14,-19,-24,-9
0,-14,-14,7,7,-14,-24,-53,-24,-19,-24,-9
0,-9,-9,4,4,-9,-24,-53,-29,-19,-24,-9
0,-9,-9,4,4,-9,-24,-53,-29,-24,-24,-9
0,-9,-9,4,4,-9,-24,-53,-29,-29,-24,-9
0,-14,-14,7,7,-14,-24,-53,-29,-29,-24,-9
4,-19,-24,7,14,-21,-24,-53,-29,-29,-24,-9
4,-24,-29,9,17,-26,-24,-53,-29,-24,-24,-9
0,-24,-24,12,12,-24,-24,-53,-29,-24,-24,-9
0,-24,-24,12,12,-24,-24,-53,-24,-24,-24,-9
0,-24,-24,12,12,-24,-24,-58,-19,-24,-24,-9
4,-24,-29,9,17,-26,-29,-58,-24,-24,-24,-9
4,-24,-29,9,17,-26,-29,-58,-24,-24,-24,-9
0,-24,-24,12,12,-24,-29,-58,-24,-24,-24,-9
0,-29,-29,14,14,-29,-29,-58,-24,-24,-24,-9
0,-29,-29,14,14,-29,-29,-58,-24,-24,-24,-9
0,-29,-29,14,14,-29,-29,-63,-29,-24,-24,-9
0,-24,-24,12,12,-24,-29,-63,-29,-24,-24,-9
0,-24,-24,12,12,-24,-29,-63,-24,-29,-24,-9
0,-24,-24,12,12,-24,-29,-63,-24,-29,-24,-9
4,-29,-34,12,19,-31,-29,-63,-24,-29,-24,-14
4,-24,-29,9,17,-26,-29,-63,-29,-29,-24,-14
4,-19,-24,7,14,-21,-29,-63,-29,-29,-24,-14
4,-19,-24,7,14,-21,-29,-63,-29,-34,-24,-14
4,-19,-24,7,14,-21,-29,-63,-29,-39,-24,-14
4,-24,-29,9,17,-26,-29,-63,-29,-39,-19,-14
0,-29,-29,14,14,-29,-29,-63,-29,-39,-19,-9
0,-29,-29,14,14,-29,-29,-63,-29,-39,-19,-9
0,-29,-29,14,14,-29,-29,-63,-34,-39,-19,-9
0,-29,-29,14,14,-29,-29,-63,-34,-39,-19,-9
0,-29,-29,14,14,-29,-29,-63,-34,-39,-19,-9
0,-34,-34,17,17,-34,-34,-63,-29,-39,-19,-9
0,-34,-34,17,17,-34,-39,-63,-29,-39,-19,-9
0,-34,-34,17,17,-34,-39,-63,-34,-39,-19,-9
0,-34,-34,17,17,-34,-39,-63,-39,-39,-19,-9
-4,-34,-29,19,12,-31,-39,-63,-39,-39,-19,-9
-9,-34,-24,21,7,-29,-39,-63,-39,-39,-19,-9
-4,-29,-24,17,9,-26,-39,-68,-34,-39,-19,-9
-4,-29,-24,17,9,-26,-39,-73,-34,-43,-19,-9
0,-24,-24,12,12,-24,-39,-73,-34,-43,-19,-9
4,-24,-29,9,17,-26,-34,-73,-29,-43,-19,-9
4,-14,-19,4,12,-17,-39,-68,-24,-34,-14,-4
4,-4,-9,0,7,-7,-43,-63,-24,-29,-14,-4
4,4,0,-4,2,2,-43,-63,-19,-24,-9,0
9,19,9,-14,0,14,-48,-68,-19,-19,-9,0
14,39,24,-26,-4,31,-48,-68,-9,-14,-9,4
19,58,39,-39,-9,48,-48,-68,0,-9,-9,9
19,63,43,-41,-12,53,-48,-68,4,-9,-4,9
19,58,39,-39,-9,48,-48,-63,4,-9,-4,4
24,58,34,-41,-4,46,-48,-63,9,-9,-4,4
24,68,43,-46,-9,56,-53,-58,9,-9,-4,4
24,92,68,-58,-21,80,-73,-78,9,-9,-4,9
24,112,87,-68,-31,100,-92,-112,4,-4,0,24
34,131,97,-82,-31,114,-131,-131,4,4,9,34
43,136,92,-90,-24,114,-146,-141,0,4,14,43
53,131,78,-92,-12,104,-146,-151,0,4,19,43
63,131,68,-97,-2,100,-141,-141,4,14,24,53
73,131,58,-102,7,95,-131,-117,19,29,39,58
78,131,53,-104,12,92,-117,-102,19,39,53,63
78,136,58,-107,9,97,-107,-102,24,43,53,63
78,131,53,-104,12,92,-107,-102,24,48,53,68
82,126,43,-104,19,85,-107,-107,9,39,53,78
78,102,24,-90,26,63,-102,-107,-9,24,39,73
53,68,14,-61,19,41,-87,-112,-24,4,19,53
39,39,0,-39,19,19,-78,-117,-39,-14,0,24
9,19,9,-14,0,14,-68,-117,-53,-39,-24,4
-4,-4,0,4,-2,-2,-53,-117,-58,-43,-34,-4
-4,-14,-9,9,2,-12,-43,-112,-58,-53,-39,-19
-4,-29,-24,17,9,-26,-39,-107,-58,-58,-48,-24
-4,-34,-29,19,12,-31,-39,-92,-58,-58,-48,-24
0,-39,-39,19,19,-39,-34,-82,-58,-58,-48,-29
0,-43,-43,21,21,-43,-29,-82,-58,-58,-48,-29
0,-48,-48,24,24,-48,-29,-82,-58,-58,-48,-29
0,-48,-48,24,24,-48,-29,-78,-58,-58,-48,-29
0,-48,-48,24,24,-48,-29,-78,-58,-58,-48,-34
0,-43,-43,21,21,-43,-29,-78,-58,-58,-48,-34
-4,-43,-39,24,17,-41,-29,-78,-58,-58,-48,-34
-4,-43,-39,24,17,-41,-29,-78,-58,-58,-48,-29
-4,-43,-39,24,17,-41,-29,-78,-58,-58,-48,-29
-4,-43,-39,24,17,-41,-29,-78,-53,-53,-48,-29
-4,-43,-39,24,17,-41,-29,-73,-53,-53,-48,-29
-4,-39,-34,21,14,-36,-29,-73,-48,-53,-48,-24
-4,-39,-34,21,14,-36,-29,-73,-48,-53,-43,-19
-4,-43,-39,24,17,-41,-29,-73,-53,-43,-34,-19
-4,-43,-39,24,17,-41,-29,-68,-53,-39,-29,-24
-19,-53,-34,36,7,-43,-29,-73,-43,-48,-34,-19
-34,-68,-34,51,0,-51,-14,-68,-39,-68,-63,-43
-73,-87,-14,80,-29,-51,9,-82,-73,-156,-180,-131
-97,-92,4,95,-51,-43,68,0,-9,-195,-258,-204
-63,-97,-34,80,-14,-65,151,307,322,9,-112,-165
-34,-92,-58,63,12,-75,268,570,634,258,63,-122
-43,-14,29,29,-36,7,385,624,844,649,287,-82
-48,92,141,-21,-95,117,448,678,990,971,473,-34
24,214,190,-119,-82,202,483,873,1312,1195,658,87
63,268,204,-165,-70,236,439,844,980,541,248,43
-239,122,361,58,-300,241,292,287,-995,-1795,-1342,-439
-497,-170,326,334,-412,78,229,-190,-2605,-3167,-2220,-771
-624,-468,156,546,-390,-156,165,-551,-3362,-3313,-2264,-844
-639,-546,92,592,-366,-226,-9,-868,-3323,-2981,-2064,-805
-502,-448,53,475,-278,-197,-126,-907,-2610,-2264,-1668,-741
-331,-405,-73,368,-129,-239,-131,-712,-1839,-1561,-1224,-614
-209,-370,-161,290,-24,-265,-4,-336,-1112,-951,-766,-419
-165,-331,-165,248,0,-248,87,-87,-600,-531,-444,-268
-136,-224,-87,180,-24,-156,82,-63,-370,-322,-263,-165
-92,-117,-24,104,-34,-70,34,-68,-229,-190,-151,-92
-53,-68,-14,61,-19,-41,4,-82,-161,-131,-112,-58
-43,-53,-9,48,-17,-31,-4,-82,-97,-82,-73,-34
-39,-53,-14,46,-12,-34,0,-48,-58,-48,-34,-24
-29,-53,-24,41,-2,-39,0,-19,-39,-39,-19,-24
-19,-48,-29,34,4,-39,0,-19,-24,-29,-14,-24
-19,-48,-29,34,4,-39,0,-24,-9,-19,-4,-14
-19,-48,-29,34,4,-39,0,-24,0,-9,-4,-14
-19,-48,-29,34,4,-39,0,-19,9,-4,0,-9
-19,-48,-29,34,4,-39,0,-19,14,0,0,-9
-19,-43,-24,31,2,-34,0,-19,19,9,0,-4
-14,-43,-29,29,7,-36,0,-14,29,9,4,-4
-14,-43,-29,29,7,-36,4,-14,34,14,4,-4
-14,-43,-29,29,7,-36,4,-9,34,19,9,-4
-14,-43,-29,29,7,-36,4,-9,39,19,14,-4
-14,-43,-29,29,7,-36,4,-4,43,24,14,-4
-14,-43,-29,29,7,-36,9,0,48,24,14,-4
-14,-43,-29,29,7,-36,9,0,53,29,9,-4
-9,-39,-29,24,9,-34,9,9,58,29,4,-9
-4,-34,-29,19,12,-31,14,14,58,29,4,-9
0,-34,-34,17,17,-34,14,14,68,34,4,-4
0,-34,-34,17,17,-34,24,24,73,39,9,-4
0,-29,-29,14,14,-29,24,29,73,39,9,-4
-4,-34,-29,19,12,-31,24,34,82,39,9,-4
-9,-39,-29,24,9,-34,29,39,92,34,14,-4
-4,-34,-29,19,12,-31,29,43,97,43,19,0
-4,-34,-29,19,12,-31,29,53,107,48,24,0
-4,-34,-29,19,12,-31,34,58,117,48,29,4
-4,-34,-29,19,12,-31,34,58,122,53,29,4
-4,-34,-29,19,12,-31,34,68,122,58,34,9
-4,-34,-29,19,12,-31,39,78,122,58,43,9
-4,-34,-29,19,12,-31,39,82,131,68,48,14
-4,-34,-29,19,12,-31,43,92,141,73,53,14
-4,-34,-29,19,12,-31,48,107,156,87,58,14
-4,-29,-24,17,9,-26,48,117,170,97,63,19
-4,-29,-24,17,9,-26,53,126,180,102,63,24
0,-24,-24,12,12,-24,58,136,200,112,68,24
0,-19,-19,9,9,-19,63,146,209,122,73,29
0,-19,-19,9,9,-19,73,165,229,131,78,34
-4,-14,-9,9,2,-12,78,190,244,146,87,39
-4,-14,-9,9,2,-12,78,214,258,161,97,39
-4,-14,-9,9,2,-12,87,229,273,180,112,43
-4,-9,-4,7,0,-7,87,239,283,195,126,43
-4,-4,0,4,-2,-2,92,258,297,204,131,53
-4,0,4,2,-4,2,97,273,317,219,146,58
-4,4,9,0,-7,7,97,297,331,239,165,68
-4,14,19,-4,-12,17,102,307,351,258,185,78
0,14,14,-7,-7,14,102,317,361,283,204,87
4,19,14,-12,-4,17,102,331,380,297,229,97
14,34,19,-24,-2,26,102,341,385,322,244,112
24,43,19,-34,2,31,97,341,395,351,263,122
24,53,29,-39,-2,41,92,351,414,380,297,146
29,58,29,-43,0,43,87,356,419,405,317,156
43,68,24,-56,9,46,82,356,434,429,336,180
48,82,34,-65,7,58,78,341,448,453,361,190
48,92,43,-70,2,68,68,331,453,468,385,214
53,102,48,-78,2,75,48,307,458,488,414,229
63,122,58,-92,2,90,34,283,444,502,429,248
73,136,63,-104,4,100,14,253,439,517,448,258
82,141,58,-112,12,100,-4,219,429,536,473,268
92,151,58,-122,17,104,-29,180,414,546,488,283
102,151,48,-126,26,100,-48,151,400,556,512,292
102,156,53,-129,24,104,-63,112,380,561,517,302
112,156,43,-134,34,100,-87,68,370,561,522,307
117,156,39,-136,39,97,-102,39,356,551,517,312
122,156,34,-139,43,95,-122,9,331,527,507,317
122,146,24,-134,48,85,-131,-9,307,507,483,307
122,146,24,-134,48,85,-131,-34,283,483,458,287
112,136,24,-124,43,80,-131,-43,258,448,429,268
102,126,24,-114,39,75,-131,-53,229,400,390,253
97,117,19,-107,39,68,-131,-58,204,361,346,229
92,102,9,-97,41,56,-122,-63,195,317,307,200
87,92,4,-90,41,48,-107,-68,175,287,268,180
78,78,0,-78,39,39,-97,-68,151,239,239,156
68,63,-4,-65,36,29,-87,-63,136,204,204,136
63,53,-9,-58,36,21,-82,-63,117,170,175,112
53,39,-14,-46,34,12,-73,-58,102,141,146,92
43,34,-9,-39,26,12,-63,-53,87,112,117,78
29,24,-4,-26,17,9,-53,-48,73,97,92,63
29,14,-14,-21,21,0,-48,-48,63,78,73,48
24,9,-14,-17,19,-2,-43,-39,53,58,53,34
19,9,-9,-14,14,0,-39,-39,43,34,43,19
19,4,-14,-12,17,-4,-34,-39,39,19,34,14
9,-4,-14,-2,12,-9,-34,-34,34,14,24,14
0,-9,-9,4,4,-9,-29,-34,29,4,14,9
-4,-9,-4,7,0,-7,-24,-29,29,4,14,0
-4,-14,-9,9,2,-12,-24,-29,24,4,9,-4
-4,-14,-9,9,2,-12,-24,-29,19,-4,4,-9
-4,-19,-14,12,4,-17,-19,-29,19,-9,-4,-14
-4,-19,-14,12,4,-17,-19,-29,19,-19,-9,-14
-4,-19,-14,12,4,-17,-19,-29,14,-29,-14,-19
0,-19,-19,9,9,-19,-19,-24,9,-29,-24,-19
4,-19,-24,7,14,-21,-19,-24,0,-34,-24,-19
4,-14,-19,4,12,-17,-14,-24,0,-34,-24,-24
0,-9,-9,4,4,-9,-14,-24,0,-39,-29,-24
0,-14,-14,7,7,-14,-14,-24,0,-39,-34,-19
0,-14,-14,7,7,-14,-14,-24,0,-39,-34,-14
-4,-14,-9,9,2,-12,-14,-24,0,-39,-34,-14
-9,-14,-4,12,-2,-9,-14,-24,0,-39,-34,-14
-9,-14,-4,12,-2,-9,-14,-24,0,-39,-34,-14
-9,-9,0,9,-4,-4,-14,-24,0,-39,-34,-14
-4,-9,-4,7,0,-7,-14,-24,0,-39,-34,-14
-4,-14,-9,9,2,-12,-9,-24,-4,-39,-34,-14
-4,-14,-9,9,2,-12,-9,-29,-4,-39,-34,-14
-4,-9,-4,7,0,-7,-9,-29,-4,-34,-34,-14
-4,-9,-4,7,0,-7,-9,-29,0,-34,-29,-14
0,-9,-9,4,4,-9,-9,-29,0,-34,-29,-14
0,-9,-9,4,4,-9,-9,-29,0,-34,-34,-14
0,-9,-9,4,4,-9,-14,-34,0,-34,-34,-9
0,-4,-4,2,2,-4,-14,-34,0,-29,-34,-9
0,-4,-4,2,2,-4,-14,-34,4,-24,-29,-9
0,-4,-4,2,2,-4,-14,-34,4,-24,-24,-9
0,-4,-4,2,2,-4,-14,-34,4,-24,-24,-4
-4,-4,0,4,-2,-2,-14,-34,4,-24,-24,-4
-4,-4,0,4,-2,-2,-14,-39,4,-19,-19,-4
-4,-4,0,4,-2,-2,-19,-43,4,-19,-19,0
-4,-4,0,4,-2,-2,-24,-43,4,-19,-19,0
-4,-4,0,4,-2,-2,-24,-43,4,-14,-14,0
-4,-4,0,4,-2,-2,-24,-43,0,-14,-14,0
0,-4,-4,2,2,-4,-29,-43,0,-19,-14,-4
0,-4,-4,2,2,-4,-29,-43,0,-19,-14,-9
0,-4,-4,2,2,-4,-29,-48,0,-19,-19,-9
0,-4,-4,2,2,-4,-29,-48,4,-19,-24,-9
0,-9,-9,4,4,-9,-24,-48,4,-19,-24,-4
0,-9,-9,4,4,-9,-24,-48,4,-19,-24,0
0,-9,-9,4,4,-9,-24,-53,0,-19,-19,0
0,-9,-9,4,4,-9,-24,-53,0,-19,-14,0
0,-9,-9,4,4,-9,-24,-53,0,-19,-14,0
0,-9,-9,4,4,-9,-24,-53,0,-19,-14,0
0,-9,-9,4,4,-9,-24,-53,-4,-19,-14,-4
4,-9,-14,2,9,-12,-24,-53,-9,-19,-14,-9
4,-14,-19,4,12,-17,-29,-53,-9,-14,-19,-9
0,-14,-14,7,7,-14,-34,-53,-9,-14,-24,-9
0,-14,-14,7,7,-14,-34,-53,-9,-14,-24,-9
0,-14,-14,7,7,-14,-34,-58,-9,-14,-24,-9
4,-14,-19,4,12,-17,-34,-58,-9,-19,-24,-9
4,-14,-19,4,12,-17,-29,-58,-4,-24,-24,-9
0,-14,-14,7,7,-14,-29,-58,-4,-24,-24,-9
0,-19,-19,9,9,-19,-29,-58,-4,-24,-24,-9
0,-19,-19,9,9,-19,-29,-58,-4,-24,-24,-9
0,-19,-19,9,9,-19,-29,-63,-9,-24,-24,-9
0,-14,-14,7,7,-14,-29,-63,-9,-19,-19,-9
0,-14,-14,7,7,-14,-29,-63,-4,-19,-14,-9
0,-14,-14,7,7,-14,-29,-63,-4,-19,-14,-9
4,-19,-24,7,14,-21,-29,-63,-4,-19,-14,-14
4,-19,-24,7,14,-21,-34,-63,-9,-24,-14,-14
4,-19,-24,7,14,-21,-39,-63,-9,-29,-14,-14
4,-19,-24,7,14,-21,-39,-63,-9,-29,-14,-14
4,-19,-24,7,14,-21,-39,-63,-9,-29,-14,-14
4,-19,-24,7,14,-21,-34,-63,-9,-29,-9,-14
0,-19,-19,9,9,-19,-29,-63,-9,-29,-9,-9
0,-19,-19,9,9,-19,-29,-63,-9,-29,-9,-9
0,-19,-19,9,9,-19,-29,-63,-14,-29,-9,-9
0,-19,-19,9,9,-19,-29,-63,-14,-29,-9,-9
0,-19,-19,9,9,-19,-29,-63,-14,-29,-9,-9
0,-24,-24,12,12,-24,-29,-63,-9,-29,-9,-9
0,-24,-24,12,12,-24,-29,-63,-9,-29,-9,-9
0,-24,-24,12,12,-24,-29,-63,-9,-29,-14,-9
0,-24,-24,12,12,-24,-29,-63,-9,-29,-19,-9
0,-24,-24,12,12,-24,-29,-63,-9,-29,-19,-9
0,-24,-24,12,12,-24,-29,-63,-9,-29,-19,-9
4,-19,-24,7,14,-21,-29,-68,-9,-29,-19,-9
4,-19,-24,7,14,-21,-29,-73,-14,-34,-19,-9
4,-14,-19,4,12,-17,-34,-73,-14,-34,-19,-9
0,-14,-14,7,7,-14,-34,-73,-9,-34,-19,-9
0,-19,-19,9,9,-19,-34,-68,-14,-39,-24,-14
-4,-19,-14,12,4,-17,-39,-68,-14,-39,-24,-14
0,-29,-29,14,14,-29,-34,-68,-14,-39,-29,-14
0,-29,-29,14,14,-29,-34,-68,-4,-39,-29,-9
-4,-29,-24,17,9,-26,-29,-68,-4,-34,-29,-9
-9,-34,-24,21,7,-29,-29,-63,-4,-34,-29,-9
0,-19,-19,9,9,-19,-29,-68,-4,-29,-29,-9
0,-4,-4,2,2,-4,-34,-68,-4,-19,-29,-4
0,0,0,0,0,0,-34,-68,0,-19,-19,-4
0,9,9,-4,-4,9,-39,-68,0,-19,-9,-9
4,29,24,-17,-9,26,-43,-68,9,-9,-9,-4
9,48,39,-29,-14,43,-48,-68,19,0,-9,0
14,63,48,-39,-17,56,-48,-68,24,4,-4,4
14,68,53,-41,-19,61,-43,-68,24,4,-4,4
19,78,58,-48,-19,68,-43,-68,29,9,-4,9
24,68,43,-46,-9,56,-43,-68,29,9,-4,4
24,68,43,-46,-9,56,-53,-53,29,4,-4,0
24,82,58,-53,-17,70,-73,-58,34,0,-4,0
24,112,87,-68,-31,100,-92,-102,34,4,0,14
29,136,107,-82,-39,122,-122,-126,34,14,9,24
34,136,102,-85,-34,119,-136,-141,24,14,14,34
43,131,87,-87,-21,109,-146,-151,19,14,19,34
53,131,78,-92,-12,104,-141,-131,24,24,24,43
63,131,68,-97,-2,100,-131,-117,39,39,34,48
68,136,68,-102,0,102,-112,-107,53,58,48,63
68,141,73,-104,-2,107,-97,-102,68,68,53,73
73,136,63,-104,4,100,-97,-102,63,68,58,82
73,131,58,-102,7,95,-97,-107,48,53,58,87
68,102,34,-85,17,68,-97,-112,24,34,39,73
53,68,14,-61,19,41,-87,-117,4,14,19,53
29,39,9,-34,9,24,-78,-117,-29,-9,0,19
0,24,24,-12,-12,24,-68,-117,-58,-34,-19,0
-9,0,9,4,-9,4,-53,-117,-63,-39,-29,-9
-14,-9,4,12,-9,-2,-43,-112,-68,-48,-34,-24
-14,-19,-4,17,-4,-12,-34,-107,-68,-48,-39,-24
-14,-24,-9,19,-2,-17,-29,-97,-68,-48,-39,-24
-9,-34,-24,21,7,-29,-24,-92,-68,-43,-39,-29
-9,-39,-29,24,9,-34,-19,-92,-68,-39,-39,-29
-9,-39,-29,24,9,-34,-19,-92,-68,-39,-43,-29
-9,-39,-29,24,9,-34,-19,-87,-68,-39,-48,-29
-9,-39,-29,24,9,-34,-19,-87,-68,-43,-48,-34
-9,-39,-29,24,9,-34,-19,-87,-68,-48,-48,-34
-14,-43,-29,29,7,-36,-19,-87,-68,-48,-48,-34
-14,-43,-29,29,7,-36,-19,-87,-68,-48,-48,-29
-14,-43,-29,29,7,-36,-19,-87,-68,-48,-48,-29
-14,-43,-29,29,7,-36,-19,-87,-63,-43,-48,-29
-14,-43,-29,29,7,-36,-19,-82,-63,-43,-43,-29
-14,-39,-24,26,4,-31,-19,-82,-58,-43,-39,-29
-14,-39,-24,26,4,-31,-24,-82,-58,-39,-34,-29
-14,-43,-29,29,7,-36,-29,-82,-58,-29,-34,-29
-9,-39,-29,24,9,-34,-29,-78,-58,-29,-34,-24
-19,-43,-24,31,2,-34,-19,-68,-48,-39,-48,-29
-34,-58,-24,46,-4,-41,-9,-82,-73,-68,-92,-73
-58,-73,-14,65,-21,-43,14,-63,-58,-97,-146,-131
-82,-82,0,82,-41,-41,87,63,29,-151,-229,-204
-73,-78,-4,75,-34,-41,170,292,278,4,-136,-195
-39,-78,-39,58,0,-58,297,566,644,322,92,-141
-39,-24,14,31,-26,-4,395,663,834,590,258,-102
-39,107,146,-34,-92,126,453,736,1093,1112,575,0
-34,185,219,-75,-126,202,488,814,1141,1132,600,43
-9,258,268,-124,-139,263,419,707,541,-24,-180,-82
-214,151,366,31,-290,258,297,287,-917,-1771,-1371,-424
-531,-253,278,392,-405,12,278,-244,-2727,-3098,-2171,-785
-668,-512,156,590,-412,-178,214,-605,-3542,-3425,-2347,-897
-634,-512,122,573,-378,-195,-34,-932,-3172,-2835,-2015,-810
-531,-439,92,485,-312,-173,-151,-995,-2591,-2210,-1644,-732
-322,-405,-82,363,-119,-244,-102,-663,-1742,-1464,-1141,-575
-185,-361,-175,273,-4,-268,-4,-341,-1058,-878,-717,-409
-165,-312,-146,239,-9,-229,92,-102,-600,-507,-424,-253
-136,-224,-87,180,-24,-156,107,-29,-341,-283,-239,-151
-82,-102,-19,92,-31,-61,29,-78,-253,-185,-156,-92
-43,-43,0,43,-21,-21,-4,-87,-185,-122,-107,-53
-43,-43,0,43,-21,-21,-4,-73,-112,-78,-68,-34
-39,-43,-4,41,-17,-24,0,-48,-68,-43,-34,-24
-29,-43,-14,36,-7,-29,0,-29,-58,-39,-29,-24
-19,-39,-19,29,0,-29,0,-29,-43,-29,-24,-24
-19,-39,-19,29,0,-29,0,-29,-29,-19,-14,-14
-19,-39,-19,29,0,-29,0,-24,-19,-9,-14,-14
-19,-39,-19,29,0,-29,0,-19,-9,-4,-9,-9
-19,-39,-19,29,0,-29,0,-19,-4,-4,-9,-9
-19,-34,-14,26,-2,-24,0,-14,0,0,-9,-4
-14,-34,-19,24,2,-26,0,-4,9,0,-4,-4
-14,-34,-19,24,2,-26,0,-4,14,4,-4,-4
-14,-34,-19,24,2,-26,-4,0,14,9,0,-4
-14,-34,-19,24,2,-26,-4,-4,19,14,4,-4
-14,-34,-19,24,2,-26,-4,-4,24,24,4,-4
-14,-34,-19,24,2,-26,0,0,29,24,4,-4
-14,-34,-19,24,2,-26,0,0,34,29,4,-4
-9,-29,-19,19,4,-24,0,9,39,29,4,-9
-9,-29,-19,19,4,-24,4,14,39,29,4,-9
-4,-34,-29,19,12,-31,4,14,48,34,4,-4
0,-34,-34,17,17,-34,14,24,53,39,9,-4
0,-29,-29,14,14,-29,19,29,53,39,9,-4
0,-29,-29,14,14,-29,24,34,63,43,9,-4
-4,-29,-24,17,9,-26,29,39,68,39,14,-4
-4,-24,-19,14,7,-21,29,43,68,43,19,0
-4,-24,-19,14,7,-21,29,53,78,48,24,0
-4,-24,-19,14,7,-21,34,58,87,48,29,4
-4,-24,-19,14,7,-21,34,58,92,53,29,4
-4,-24,-19,14,7,-21,34,68,97,63,34,9
-4,-24,-19,14,7,-21,34,78,102,63,39,4
-4,-24,-19,14,7,-21,29,82,112,68,39,4
0,-24,-24,12,12,-24,34,92,122,73,43,4
4,-24,-29,9,17,-26,39,107,136,87,48,4
4,-19,-24,7,14,-21,39,117,151,97,53,14
4,-19,-24,7,14,-21,43,131,161,102,58,24
9,-19,-29,4,19,-24,48,146,175,112,68,24
9,-19,-29,4,19,-24,53,156,180,126,73,29
9,-19,-29,4,19,-24,63,175,200,136,78,34
9,-14,-24,2,17,-19,68,195,214,146,87,39
14,-14,-29,0,21,-21,68,214,229,161,97,39
14,-14,-29,0,21,-21,78,229,248,180,112,48
14,-4,-19,-4,17,-12,78,239,258,195,126,48
14,4,-9,-9,12,-2,82,258,268,209,136,53
14,9,-4,-12,9,2,87,273,287,224,151,58
14,14,0,-14,7,7,87,292,302,239,165,68
9,19,9,-14,0,14,92,302,322,258,185,78
9,14,4,-12,2,9,92,317,331,287,204,87
14,19,4,-17,4,12,92,331,351,302,229,97
19,34,14,-26,2,24,92,341,361,322,244,112
24,43,19,-34,2,31,87,341,375,351,263,122
24,53,29,-39,-2,41,82,346,395,380,297,146
29,58,29,-43,0,43,82,351,400,400,317,156
43,68,24,-56,9,46,78,351,409,419,341,180
48,82,34,-65,7,58,68,331,419,444,370,185
53,92,39,-73,7,65,58,322,419,463,395,204
63,102,39,-82,12,70,39,302,419,492,429,219
73,117,43,-95,14,80,24,283,405,512,448,239
82,126,43,-104,19,85,4,253,405,531,468,258
87,131,43,-109,21,87,-14,219,400,551,488,278
97,146,48,-122,24,97,-39,180,385,561,502,292
112,151,39,-131,36,95,-58,151,370,570,527,302
112,156,43,-134,34,100,-73,112,356,570,527,312
117,156,39,-136,39,97,-92,73,341,566,527,312
112,156,43,-134,34,100,-102,39,317,570,527,317
112,156,43,-134,34,100,-117,4,292,556,522,322
112,146,34,-129,39,90,-126,-9,273,527,492,312
112,141,29,-126,41,85,-131,-34,253,492,463,297
107,126,19,-117,43,73,-131,-48,229,453,434,278
102,117,14,-109,43,65,-131,-63,200,409,400,258
97,107,9,-102,43,58,-131,-68,175,370,356,229
87,92,4,-90,41,48,-122,-68,161,322,317,200
78,82,4,-80,36,43,-107,-68,141,287,278,180
68,73,4,-70,31,39,-97,-68,122,239,244,156
58,63,4,-61,26,34,-87,-63,107,204,200,136
53,53,0,-53,26,26,-82,-63,87,170,165,112
43,39,-4,-41,24,17,-73,-58,73,141,136,87
39,34,-4,-36,21,14,-63,-53,58,112,112,73
29,24,-4,-26,17,9,-53,-48,43,87,87,63
29,14,-14,-21,21,0,-48,-48,34,58,63,48
24,9,-14,-17,19,-2,-43,-39,24,39,43,29
19,9,-9,-14,14,0,-39,-39,14,19,34,9
14,4,-9,-9,12,-2,-34,-39,9,9,24,4
4,0,-4,-2,4,-2,-34,-34,4,4,14,4
0,0,0,0,0,0,-29,-34,-4,-9,4,0
-4,0,4,2,-4,2,-24,-29,-9,-14,4,-4
-4,-4,0,4,-2,-2,-19,-29,-14,-14,0,-4
-4,-4,0,4,-2,-2,-14,-29,-19,-24,-4,-9
-4,-9,-4,7,0,-7,-9,-29,-14,-24,-19,-14
-4,-9,-4,7,0,-7,-9,-29,-9,-24,-24,-14
-4,-9,-4,7,0,-7,-9,-29,-14,-29,-24,-19
-4,-9,-4,7,0,-7,-9,-24,-14,-29,-34,-19
-4,-9,-4,7,0,-7,-14,-24,-19,-39,-34,-19
-4,-9,-4,7,0,-7,-14,-24,-19,-43,-34,-24
-9,-9,0,9,-4,-4,-14,-24,-19,-48,-39,-24
-9,-14,-4,12,-2,-9,-14,-24,-19,-48,-43,-24
-9,-14,-4,12,-2,-9,-9,-24,-19,-48,-43,-24
-9,-14,-4,12,-2,-9,-4,-24,-19,-48,-43,-24
-9,-14,-4,12,-2,-9,-4,-29,-19,-48,-43,-24
-9,-14,-4,12,-2,-9,-4,-34,-19,-48,-43,-24
-9,-9,0,9,-4,-4,-4,-34,-19,-48,-43,-29
-9,-9,0,9,-4,-4,-9,-34,-19,-48,-43,-34
-14,-14,0,14,-7,-7,-9,-34,-24,-48,-43,-34
-14,-14,0,14,-7,-7,-9,-39,-24,-48,-43,-34
-14,-14,0,14,-7,-7,-9,-39,-29,-43,-43,-29
-14,-19,-4,17,-4,-12,-9,-39,-29,-43,-39,-24
-9,-19,-9,14,0,-14,-9,-39,-29,-43,-39,-24
-9,-19,-9,14,0,-14,-9,-39,-29,-43,-43,-24
-9,-14,-4,12,-2,-9,-14,-43,-29,-43,-43,-19
-9,-4,4,7,-7,0,-14,-43,-29,-39,-43,-19
-9,-4,4,7,-7,0,-14,-43,-24,-34,-39,-19
-9,-4,4,7,-7,0,-14,-43,-24,-34,-34,-19
-9,-4,4,7,-7,0,-19,-43,-24,-34,-34,-14
-9,-4,4,7,-7,0,-24,-43,-24,-34,-34,-14
-4,-4,0,4,-2,-2,-24,-48,-24,-29,-29,-14
-4,-4,0,4,-2,-2,-24,-53,-24,-29,-29,-9
-4,-4,0,4,-2,-2,-24,-53,-24,-29,-29,-9
-4,-4,0,4,-2,-2,-24,-53,-24,-24,-24,-9
-4,-9,-4,7,0,-7,-24,-53,-29,-24,-24,-9
-4,-14,-9,9,2,-12,-29,-53,-29,-29,-24,-9
-9,-14,-4,12,-2,-9,-29,-53,-29,-29,-24,-9
-9,-14,-4,12,-2,-9,-29,-58,-34,-29,-24,-9
-9,-14,-4,12,-2,-9,-29,-58,-34,-29,-24,-9
-9,-19,-9,14,0,-14,-29,-58,-34,-29,-24,-9
-9,-19,-9,14,0,-14,-34,-53,-29,-29,-24,-9
-9,-19,-9,14,0,-14,-34,-53,-29,-29,-24,-9
-9,-19,-9,14,0,-14,-34,-53,-29,-29,-24,-9
-9,-19,-9,14,0,-14,-34,-53,-29,-29,-24,-9
-9,-19,-9,14,0,-14,-34,-58,-29,-29,-24,-9
-9,-19,-9,14,0,-14,-34,-63,-29,-29,-24,-9
-4,-19,-14,12,4,-17,-34,-63,-34,-29,-24,-9
-4,-24,-19,14,7,-21,-34,-63,-39,-29,-24,-9
-9,-24,-14,17,2,-19,-34,-63,-39,-34,-24,-9
-9,-24,-14,17,2,-19,-34,-63,-39,-34,-24,-9
-9,-24,-14,17,2,-19,-29,-63,-39,-34,-24,-9
-4,-24,-19,14,7,-21,-29,-58,-43,-34,-24,-9
-4,-24,-19,14,7,-21,-29,-58,-43,-34,-24,-9
-9,-24,-14,17,2,-19,-29,-58,-43,-34,-24,-9
-4,-29,-24,17,9,-26,-34,-58,-43,-34,-24,-9
0,-29,-29,14,14,-29,-39,-58,-43,-34,-24,-9
0,-29,-29,14,14,-29,-39,-63,-43,-34,-24,-9
0,-24,-24,12,12,-24,-39,-63,-39,-34,-24,-9
-4,-24,-19,14,7,-21,-39,-63,-34,-39,-24,-9
-9,-24,-14,17,2,-19,-39,-63,-34,-39,-24,-9
-4,-34,-29,19,12,-31,-39,-63,-34,-39,-24,-14
-4,-39,-34,21,14,-36,-39,-63,-39,-39,-24,-14
-4,-39,-34,21,14,-36,-34,-63,-39,-39,-24,-14
-4,-39,-34,21,14,-36,-29,-63,-39,-39,-24,-14
-4,-39,-34,21,14,-36,-29,-63,-43,-39,-24,-14
-4,-39,-34,21,14,-36,-29,-63,-48,-39,-19,-14
-9,-39,-29,24,9,-34,-34,-63,-48,-39,-19,-9
-9,-39,-29,24,9,-34,-39,-63,-48,-39,-19,-9
-9,-39,-29,24,9,-34,-39,-63,-53,-39,-19,-4
-9,-39,-29,24,9,-34,-39,-63,-53,-39,-19,0
-9,-39,-29,24,9,-34,-34,-63,-53,-39,-19,0
-9,-43,-34,26,12,-39,-29,-63,-48,-39,-19,0
-9,-39,-29,24,9,-34,-29,-63,-48,-39,-19,-4
-9,-34,-24,21,7,-29,-29,-63,-48,-39,-19,-9
-9,-34,-24,21,7,-29,-29,-63,-48,-39,-19,-9
-9,-34,-24,21,7,-29,-29,-63,-48,-39,-19,-9
-9,-39,-29,24,9,-34,-34,-63,-48,-43,-19,-9
-4,-39,-34,21,14,-36,-39,-63,-43,-43,-19,-9
-4,-39,-34,21,14,-36,-39,-63,-43,-43,-19,-9
0,-34,-34,17,17,-34,-43,-63,-43,-43,-19,-9
-4,-34,-29,19,12,-31,-39,-63,-43,-43,-19,-9
-4,-34,-29,19,12,-31,-34,-58,-48,-43,-19,-9
-4,-34,-29,19,12,-31,-34,-58,-43,-39,-14,-4
0,-24,-24,12,12,-24,-34,-58,-29,-29,-9,0
4,-9,-14,2,9,-12,-34,-58,-29,-24,-4,4
9,0,-9,-4,9,-4,-39,-58,-29,-19,0,9
9,19,9,-14,0,14,-43,-58,-19,-14,0,9
9,39,29,-24,-9,34,-48,-58,-9,-9,0,9
14,43,29,-29,-7,36,-48,-63,-9,-9,0,9
14,43,29,-29,-7,36,-48,-63,-9,-9,0,9
19,48,29,-34,-4,39,-48,-68,-9,-9,-4,9
24,39,14,-31,4,26,-53,-68,-9,-9,-4,4
24,58,34,-41,-4,46,-68,-68,-9,-4,0,9
24,92,68,-58,-21,80,-92,-87,-4,0,4,19
29,112,82,-70,-26,97,-112,-122,0,4,9,34
39,126,87,-82,-24,107,-141,-136,4,14,19,43
43,126,82,-85,-19,104,-141,-141,0,14,24,53
53,122,68,-87,-7,95,-136,-141,0,14,29,53
63,122,58,-92,2,90,-131,-122,4,24,34,63
73,122,48,-97,12,85,-122,-107,19,39,43,68
73,122,48,-97,12,85,-107,-102,19,48,53,73
68,122,53,-95,7,87,-97,-102,19,48,53,73
68,112,43,-90,12,78,-97,-102,9,43,48,73
63,102,39,-82,12,70,-97,-107,-9,24,39,68
48,73,24,-61,12,48,-92,-107,-29,4,19,53
24,39,14,-31,4,26,-78,-107,-43,-14,0,34
9,9,0,-9,4,4,-68,-107,-58,-34,-19,4
-9,-4,4,7,-7,0,-58,-107,-68,-53,-39,-9
-14,-24,-9,19,-2,-17,-43,-107,-68,-53,-43,-14
-14,-29,-14,21,0,-21,-34,-102,-68,-58,-43,-24
-14,-39,-24,26,4,-31,-29,-97,-68,-58,-48,-24
-14,-43,-29,29,7,-36,-29,-87,-68,-58,-48,-24
-9,-48,-39,29,14,-43,-24,-82,-68,-58,-48,-29
-9,-48,-39,29,14,-43,-19,-82,-68,-58,-48,-29
-9,-48,-39,29,14,-43,-19,-82,-68,-58,-48,-29
-9,-48,-39,29,14,-43,-19,-78,-68,-58,-48,-29
-9,-53,-43,31,17,-48,-19,-78,-63,-58,-48,-34
-9,-58,-48,34,19,-53,-19,-78,-58,-58,-48,-34
-14,-63,-48,39,17,-56,-19,-73,-58,-58,-48,-34
-14,-63,-48,39,17,-56,-19,-68,-58,-58,-48,-29
-14,-58,-43,36,14,-51,-19,-68,-58,-58,-48,-29
-14,-53,-39,34,12,-46,-19,-68,-53,-53,-48,-29
-14,-53,-39,34,12,-46,-24,-68,-53,-53,-48,-29
-14,-48,-34,31,9,-41,-29,-73,-48,-53,-48,-29
-14,-48,-34,31,9,-41,-29,-73,-48,-53,-43,-29
-14,-53,-39,34,12,-46,-29,-73,-48,-48,-43,-29
-9,-53,-43,31,17,-48,-24,-63,-43,-48,-48,-34
-19,-63,-43,41,12,-53,-9,-48,-29,-58,-68,-48
-34,-82,-48,58,7,-65,14,-24,-14,-78,-112,-92
-58,-102,-43,80,-7,-73,53,34,39,-97,-165,-151
-58,-102,-43,80,-7,-73,126,195,204,-48,-165,-195
-24,-87,-63,56,19,-75,209,458,531,209,9,-156
-14,-63,-48,39,17,-56,326,658,819,492,190,-117
-39,14,53,12,-46,34,414,683,932,727,307,-92
-63,126,190,-31,-126,158,453,707,961,854,361,-63
-82,185,268,-51,-175,226,468,736,780,478,122,-92
-165,170,336,-2,-251,253,429,531,-78,-805,-746,-317
-478,-24,453,251,-466,214,336,14,-1795,-2679,-2025,-756
-663,-385,278,524,-470,-53,287,-375,-3050,-3445,-2454,-985
-668,-600,68,634,-368,-265,195,-595,-3308,-3211,-2259,-966
-585,-575,9,580,-297,-283,-14,-785,-2815,-2552,-1859,-839
-434,-478,-43,456,-195,-261,-92,-712,-2113,-1859,-1420,-722
-258,-419,-161,339,-48,-290,-53,-439,-1376,-1200,-961,-541
-156,-351,-195,253,19,-273,34,-175,-805,-702,-580,-351
-136,-292,-156,214,9,-224,97,-19,-444,-409,-336,-214
-107,-195,-87,151,-9,-141,78,-29,-283,-263,-200,-131
-68,-97,-29,82,-19,-63,14,-68,-200,-170,-126,-82
-43,-63,-19,53,-12,-41,-4,-68,-136,-112,-87,-53
-43,-58,-14,51,-14,-36,-4,-58,-78,-73,-53,-34
-39,-53,-14,46,-12,-34,0,-39,-48,-43,-24,-24
-29,-53,-24,41,-2,-39,0,-19,-43,-39,-19,-24
-19,-48,-29,34,4,-39,0,-19,-34,-29,-14,-24
-19,-48,-29,34,4,-39,0,-24,-19,-19,-4,-14
-19,-48,-29,34,4,-39,0,-24,-9,-9,-4,-14
-19,-48,-29,34,4,-39,0,-19,0,-4,0,-9
-19,-48,-29,34,4,-39,0,-19,4,-4,0,-9
-19,-43,-24,31,2,-34,0,-19,9,0,0,-4
-14,-43,-29,29,7,-36,0,-14,19,0,4,-4
-9,-43,-34,26,12,-39,0,-14,24,4,4,-4
-4,-43,-39,24,17,-41,-4,-9,24,9,9,-4
-4,-43,-39,24,17,-41,-4,-9,29,14,14,-4
-4,-43,-39,24,17,-41,-4,-4,34,24,14,-4
-4,-43,-39,24,17,-41,0,-4,43,24,14,-4
-4,-43,-39,24,17,-41,0,-9,53,29,14,-4
0,-39,-39,19,19,-39,0,0,58,29,14,-9
0,-39,-39,19,19,-39,4,4,58,29,14,-9
0,-43,-43,21,21,-43,4,4,68,34,14,-4
0,-43,-43,21,21,-43,14,14,73,39,19,-4
0,-39,-39,19,19,-39,14,19,73,39,19,0
0,-39,-39,19,19,-39,14,24,82,43,19,4
0,-39,-39,19,19,-39,19,29,92,43,24,4
4,-34,-39,14,21,-36,19,34,97,53,29,9
4,-34,-39,14,21,-36,19,43,107,58,34,9
4,-34,-39,14,21,-36,24,48,117,58,39,14
4,-34,-39,14,21,-36,24,48,122,63,39,14
4,-34,-39,14,21,-36,24,58,126,73,43,19
4,-34,-39,14,21,-36,29,68,131,82,53,19
4,-34,-39,14,21,-36,29,73,141,97,58,24
4,-34,-39,14,21,-36,34,78,151,102,68,24
4,-34,-39,14,21,-36,39,87,165,117,78,24
4,-29,-34,12,19,-31,39,97,180,126,82,29
4,-29,-34,12,19,-31,43,112,190,131,87,34
9,-24,-34,7,21,-29,48,126,214,141,97,34
9,-19,-29,4,19,-24,53,136,229,156,102,39
9,-19,-29,4,19,-24,63,156,248,170,107,48
9,-14,-24,2,17,-19,68,175,263,185,117,58
14,-9,-24,-2,19,-17,68,195,278,200,126,58
14,-4,-19,-4,17,-12,78,209,297,219,141,68
19,0,-19,-9,19,-9,78,219,312,239,156,68
24,4,-19,-14,21,-7,82,239,326,258,165,73
24,4,-19,-14,21,-7,82,248,346,278,185,78
24,4,-19,-14,21,-7,78,263,361,297,204,87
24,14,-9,-19,17,2,82,268,380,317,224,97
29,14,-14,-21,21,0,82,278,390,346,244,107
34,19,-14,-26,24,2,82,292,409,366,273,117
39,34,-4,-36,21,14,82,302,419,390,292,131
43,43,0,-43,21,21,82,302,434,424,312,141
43,53,9,-48,17,31,82,307,453,458,346,165
48,58,9,-53,19,34,78,312,458,483,366,175
63,68,4,-65,29,36,68,312,468,507,390,200
68,82,14,-75,26,48,58,292,478,531,419,209
73,92,19,-82,26,56,48,283,478,551,444,234
82,102,19,-92,31,61,29,263,483,575,473,253
92,117,24,-104,34,70,14,244,473,590,488,278
102,126,24,-114,39,75,-4,214,468,605,507,287
107,131,24,-119,41,78,-24,180,458,619,527,297
112,146,34,-129,39,90,-48,146,444,624,536,312
122,151,29,-136,46,90,-68,122,429,629,556,322
122,156,34,-139,43,95,-82,82,409,629,556,331
126,156,29,-141,48,92,-102,43,390,624,556,331
126,156,29,-141,48,92,-112,19,361,610,546,331
131,156,24,-143,53,90,-126,-4,331,575,531,331
131,146,14,-139,58,80,-131,-19,307,541,497,317
131,141,9,-136,61,75,-131,-43,283,502,463,297
122,126,4,-124,58,65,-131,-53,258,458,424,273
112,117,4,-114,53,61,-131,-63,229,409,380,248
107,107,0,-107,53,53,-126,-68,200,366,336,219
97,92,-4,-95,51,43,-112,-68,180,312,297,190
87,82,-4,-85,46,39,-97,-68,151,278,258,165
78,73,-4,-75,41,34,-87,-68,122,229,224,136
68,63,-4,-65,36,29,-78,-63,107,190,180,117
63,53,-9,-58,36,21,-73,-63,87,151,146,92
53,39,-14,-46,34,12,-63,-58,73,122,117,73
48,34,-14,-41,31,9,-53,-53,58,92,92,63
34,24,-9,-29,21,7,-43,-48,43,78,73,53
29,14,-14,-21,21,0,-39,-48,34,58,53,39
24,9,-14,-17,19,-2,-34,-39,24,39,34,24
19,9,-9,-14,14,0,-29,-39,14,19,24,9
19,4,-14,-12,17,-4,-24,-39,9,4,14,4
14,0,-14,-7,14,-7,-24,-34,4,-4,4,4
14,0,-14,-7,14,-7,-19,-34,0,-14,-4,0
14,0,-14,-7,14,-7,-14,-29,0,-14,-4,-4
14,-4,-19,-4,17,-12,-14,-29,-4,-14,-9,-9
14,-4,-19,-4,17,-12,-14,-29,-9,-24,-14,-19
9,-9,-19,0,14,-14,-9,-29,-9,-29,-24,-24
4,-9,-14,2,9,-12,-9,-29,-9,-34,-24,-24
4,-9,-14,2,9,-12,-9,-29,-14,-39,-24,-24
4,-9,-14,2,9,-12,-9,-24,-14,-39,-34,-19
4,-9,-14,2,9,-12,-9,-24,-19,-43,-34,-19
4,-9,-14,2,9,-12,-4,-24,-19,-43,-34,-24
0,-9,-9,4,4,-9,-4,-24,-24,-48,-39,-24
0,-14,-14,7,7,-14,-4,-24,-29,-48,-43,-24
0,-14,-14,7,7,-14,-4,-24,-29,-48,-43,-24
0,-14,-14,7,7,-14,-4,-24,-29,-48,-43,-24
0,-14,-14,7,7,-14,-4,-24,-29,-48,-43,-24
0,-14,-14,7,7,-14,-4,-24,-29,-48,-43,-24
0,-9,-9,4,4,-9,-4,-24,-29,-43,-43,-24
0,-9,-9,4,4,-9,-9,-24,-29,-39,-43,-24
0,-9,-9,4,4,-9,-14,-24,-34,-39,-43,-24
4,-4,-9,0,7,-7,-19,-29,-34,-39,-43,-24
4,0,-4,-2,4,-2,-19,-29,-34,-34,-43,-24
4,0,-4,-2,4,-2,-19,-29,-29,-34,-39,-24
9,0,-9,-4,9,-4,-14,-29,-24,-34,-34,-24
9,0,-9,-4,9,-4,-9,-29,-19,-34,-34,-24
9,0,-9,-4,9,-4,-14,-34,-19,-34,-34,-19
9,4,-4,-7,7,0,-14,-34,-19,-29,-34,-19
4,4,0,-4,2,2,-14,-34,-14,-24,-34,-14
0,4,4,-2,-2,4,-14,-34,-14,-24,-34,-9
0,4,4,-2,-2,4,-14,-34,-14,-19,-34,-4
0,4,4,-2,-2,4,-14,-34,-14,-14,-34,-4
4,4,0,-4,2,2,-19,-39,-14,-9,-29,-9
4,4,0,-4,2,2,-24,-43,-14,-9,-29,-9
4,4,0,-4,2,2,-24,-43,-19,-14,-29,-9
4,4,0,-4,2,2,-24,-43,-24,-14,-24,-9
4,4,0,-4,2,2,-19,-43,-29,-14,-24,-9
4,4,0,-4,2,2,-19,-43,-29,-19,-24,-9
0,4,4,-2,-2,4,-19,-43,-29,-19,-24,-9
0,4,4,-2,-2,4,-19,-48,-34,-19,-24,-9
4,4,0,-4,2,2,-19,-53,-34,-19,-24,-9
9,0,-9,-4,9,-4,-19,-58,-34,-19,-24,-9
9,0,-9,-4,9,-4,-29,-58,-34,-19,-24,-9
9,0,-9,-4,9,-4,-34,-63,-39,-19,-24,-9
9,0,-9,-4,9,-4,-34,-63,-39,-19,-24,-9
9,0,-9,-4,9,-4,-34,-63,-39,-19,-24,-9
4,0,-4,-2,4,-2,-34,-58,-34,-19,-24,-9
0,0,0,0,0,0,-34,-53,-29,-19,-24,-9
4,0,-4,-2,4,-2,-34,-53,-29,-19,-19,-9
4,-4,-9,0,7,-7,-34,-53,-29,-19,-14,-9
0,-4,-4,2,2,-4,-34,-53,-29,-24,-14,-9
0,-4,-4,2,2,-4,-34,-53,-29,-24,-14,-9
0,-4,-4,2,2,-4,-29,-58,-29,-24,-14,-9
4,-4,-9,0,7,-7,-29,-58,-34,-24,-14,-9
4,-4,-9,0,7,-7,-29,-58,-34,-24,-14,-9
0,-4,-4,2,2,-4,-29,-58,-34,-24,-14,-9
0,-9,-9,4,4,-9,-29,-58,-34,-24,-14,-9
0,-9,-9,4,4,-9,-29,-58,-34,-24,-14,-9
-4,-9,-4,7,0,-7,-29,-63,-39,-24,-14,-9
-9,-4,4,7,-7,0,-29,-63,-39,-24,-14,-9
-9,-4,4,7,-7,0,-29,-63,-34,-29,-14,-9
-9,-4,4,7,-7,0,-29,-63,-34,-29,-14,-9
4,-9,-14,2,9,-12,-29,-63,-34,-29,-19,-14
14,-9,-24,-2,19,-17,-29,-63,-39,-29,-24,-14
14,-9,-24,-2,19,-17,-29,-63,-39,-29,-24,-14
14,-9,-24,-2,19,-17,-29,-63,-39,-29,-24,-14
14,-9,-24,-2,19,-17,-29,-63,-39,-29,-24,-14
14,-9,-24,-2,19,-17,-29,-63,-39,-29,-19,-14
9,-9,-19,0,14,-14,-34,-63,-39,-29,-24,-9
9,-9,-19,0,14,-14,-39,-63,-39,-29,-29,-9
9,-9,-19,0,14,-14,-39,-63,-43,-29,-29,-9
9,-9,-19,0,14,-14,-39,-63,-43,-29,-29,-9
9,-9,-19,0,14,-14,-39,-63,-43,-29,-24,-9
9,-14,-24,2,17,-19,-39,-63,-39,-29,-19,-9
9,-14,-24,2,17,-19,-39,-63,-39,-29,-19,-9
9,-14,-24,2,17,-19,-39,-63,-39,-29,-19,-9
9,-14,-24,2,17,-19,-34,-63,-39,-29,-19,-9
9,-14,-24,2,17,-19,-29,-63,-39,-29,-19,-9
4,-19,-24,7,14,-21,-29,-63,-39,-34,-19,-4
4,-19,-24,7,14,-21,-29,-63,-34,-34,-19,0
4,-19,-24,7,14,-21,-24,-63,-34,-34,-19,0
9,-14,-24,2,17,-19,-24,-63,-29,-34,-19,0
9,-4,-14,-2,12,-9,-29,-58,-24,-24,-14,0
14,4,-9,-9,12,-2,-34,-53,-19,-19,-9,0
14,24,9,-19,2,17,-34,-53,-9,-14,-4,4
19,48,29,-34,-4,39,-39,-58,0,-9,0,9
24,63,39,-43,-7,51,-43,-63,0,-4,0,9
29,78,48,-53,-9,63,-48,-68,0,0,0,9
29,87,58,-58,-14,73,-48,-68,0,0,0,9
29,82,53,-56,-12,68,-48,-68,0,0,0,4
34,78,43,-56,-4,61,-48,-68,0,0,-4,4
34,78,43,-56,-4,61,-53,-68,0,0,-4,4
34,102,68,-68,-17,85,-73,-87,4,0,-4,9
34,122,87,-78,-26,104,-92,-122,4,4,0,24
39,141,102,-90,-31,122,-126,-136,4,14,9,34
43,146,102,-95,-29,124,-136,-141,0,14,14,43
53,141,87,-97,-17,114,-136,-141,0,14,19,43
63,141,78,-102,-7,109,-131,-122,4,24,24,53
73,141,68,-107,2,104,-122,-107,24,39,34,63
78,141,63,-109,7,102,-107,-102,29,48,43,73
78,141,63,-109,7,102,-97,-102,29,53,48,73
78,131,53,-104,12,92,-97,-102,24,58,53,78