I, II, III, aVR, aVL, aVF,V1,V2,V3,V4,V5,V6
-19,97,117,-39,-68,107,214,819,634,-9,-78,-58
-29,82,112,-26,-70,97,214,771,585,-39,-97,-68
-39,68,107,-14,-73,87,214,722,536,-68,-117,-78
-43,43,87,0,-65,65,204,658,468,-107,-141,-92
-48,19,68,14,-58,43,195,595,400,-146,-165,-107
-53,-4,48,29,-51,21,185,527,336,-170,-180,-117
-58,-29,29,43,-43,0,175,458,273,-195,-195,-126
-58,-53,4,56,-31,-24,161,385,209,-204,-204,-126
-58,-78,-19,68,-19,-48,146,312,146,-214,-214,-126
-53,-87,-34,70,-9,-61,126,248,102,-214,-204,-126
-48,-97,-48,73,0,-73,107,185,58,-214,-195,-126
-48,-102,-53,75,2,-78,97,126,14,-200,-180,-122
-48,-107,-58,78,4,-82,87,68,-29,-185,-165,-117
-48,-107,-58,78,4,-82,68,39,-43,-161,-146,-102
-48,-107,-58,78,4,-82,48,9,-58,-136,-126,-87
-43,-97,-53,70,4,-75,34,-24,-68,-126,-112,-82
-39,-87,-48,63,4,-68,19,-58,-78,-117,-97,-78
-39,-87,-48,63,4,-68,4,-63,-87,-97,-82,-68
-39,-87,-48,63,4,-68,-9,-68,-97,-78,-68,-58
-39,-82,-43,61,2,-63,-9,-82,-97,-73,-63,-53
-39,-78,-39,58,0,-58,-9,-97,-97,-68,-58,-48
-39,-78,-39,58,0,-58,-14,-102,-97,-63,-53,-43
-39,-78,-39,58,0,-58,-19,-107,-97,-58,-48,-39
-39,-73,-34,56,-2,-53,-19,-107,-97,-53,-43,-39
-39,-68,-29,53,-4,-48,-19,-107,-97,-48,-39,-39
-34,-68,-34,51,0,-51,-19,-107,-97,-48,-39,-39
-29,-68,-39,48,4,-53,-19,-107,-97,-48,-39,-39
-29,-68,-39,48,4,-53,-19,-107,-92,-43,-34,-39
-29,-68,-39,48,4,-53,-19,-107,-87,-39,-29,-39
-29,-68,-39,48,4,-53,-19,-102,-87,-34,-29,-34
-29,-68,-39,48,4,-53,-19,-97,-87,-29,-29,-29
-29,-68,-39,48,4,-53,-19,-97,-82,-29,-24,-29
-29,-68,-39,48,4,-53,-19,-97,-78,-29,-19,-29
-29,-68,-39,48,4,-53,-19,-92,-78,-29,-19,-29
-29,-68,-39,48,4,-53,-19,-87,-78,-29,-19,-29
-29,-63,-34,46,2,-48,-19,-87,-78,-29,-19,-29
-29,-58,-29,43,0,-43,-19,-87,-78,-29,-19,-29
-29,-58,-29,43,0,-43,-14,-87,-78,-29,-24,-29
-29,-58,-29,43,0,-43,-9,-87,-78,-29,-29,-29
-29,-63,-34,46,2,-48,-9,-82,-78,-29,-29,-29
-29,-68,-39,48,4,-53,-9,-78,-78,-29,-29,-29
-29,-68,-39,48,4,-53,-14,-78,-78,-29,-29,-29
-29,-68,-39,48,4,-53,-19,-78,-78,-29,-29,-29
-29,-63,-34,46,2,-48,-19,-82,-78,-29,-29,-29
-29,-58,-29,43,0,-43,-19,-87,-78,-29,-29,-29
-29,-58,-29,43,0,-43,-19,-87,-78,-29,-29,-29
-29,-58,-29,43,0,-43,-19,-87,-78,-29,-29,-29
-29,-63,-34,46,2,-48,-19,-82,-78,-29,-29,-29
-29,-68,-39,48,4,-53,-19,-78,-78,-29,-29,-29
-34,-68,-34,51,0,-51,-19,-78,-78,-34,-29,-34
-39,-68,-29,53,-4,-48,-19,-78,-78,-39,-29,-39
-39,-68,-29,53,-4,-48,-19,-82,-78,-39,-34,-39
-39,-68,-29,53,-4,-48,-19,-87,-78,-39,-39,-39
-39,-68,-29,53,-4,-48,-19,-87,-82,-39,-39,-39
-39,-68,-29,53,-4,-48,-19,-87,-87,-39,-39,-39
-39,-73,-34,56,-2,-53,-19,-92,-87,-39,-39,-39
-39,-78,-39,58,0,-58,-19,-97,-87,-39,-39,-39
-39,-78,-39,58,0,-58,-24,-97,-87,-39,-39,-39
-39,-78,-39,58,0,-58,-29,-97,-87,-39,-39,-39
-39,-78,-39,58,0,-58,-29,-97,-92,-43,-39,-39
-39,-78,-39,58,0,-58,-29,-97,-97,-48,-39,-39
-39,-78,-39,58,0,-58,-29,-102,-97,-48,-39,-39
-39,-78,-39,58,0,-58,-29,-107,-97,-48,-39,-39
-39,-78,-39,58,0,-58,-29,-107,-97,-48,-39,-39
-39,-78,-39,58,0,-58,-29,-107,-97,-48,-39,-39
-39,-78,-39,58,0,-58,-29,-112,-102,-48,-39,-39
-39,-78,-39,58,0,-58,-29,-117,-107,-48,-39,-39
-39,-78,-39,58,0,-58,-29,-117,-107,-48,-39,-39
-39,-78,-39,58,0,-58,-29,-117,-107,-48,-39,-39
-43,-78,-34,61,-4,-56,-29,-117,-107,-48,-39,-39
-48,-78,-29,63,-9,-53,-29,-117,-107,-48,-39,-39
-48,-78,-29,63,-9,-53,-29,-117,-107,-48,-39,-39
-48,-78,-29,63,-9,-53,-29,-117,-107,-48,-39,-39
-43,-78,-34,61,-4,-56,-34,-122,-112,-48,-39,-39
-39,-78,-39,58,0,-58,-39,-126,-117,-48,-39,-39
-39,-78,-39,58,0,-58,-39,-126,-117,-53,-39,-39
-39,-78,-39,58,0,-58,-39,-126,-117,-58,-39,-39
-39,-78,-39,58,0,-58,-39,-126,-117,-58,-43,-39
-39,-78,-39,58,0,-58,-39,-126,-117,-58,-48,-39
-43,-78,-34,61,-4,-56,-39,-131,-117,-58,-48,-39
-48,-78,-29,63,-9,-53,-39,-136,-117,-58,-48,-39
-48,-78,-29,63,-9,-53,-39,-136,-117,-53,-48,-39
-48,-78,-29,63,-9,-53,-39,-136,-117,-48,-48,-39
-48,-78,-29,63,-9,-53,-39,-136,-117,-48,-43,-39
-48,-78,-29,63,-9,-53,-39,-136,-117,-48,-39,-39
-43,-78,-34,61,-4,-56,-39,-136,-117,-53,-39,-39
-39,-78,-39,58,0,-58,-39,-136,-117,-58,-39,-39
-39,-78,-39,58,0,-58,-43,-136,-117,-58,-39,-39
-39,-78,-39,58,0,-58,-48,-136,-117,-58,-39,-39
-39,-78,-39,58,0,-58,-48,-136,-117,-58,-39,-39
-39,-78,-39,58,0,-58,-48,-136,-117,-58,-39,-39
-39,-78,-39,58,0,-58,-43,-136,-117,-58,-39,-39
-39,-78,-39,58,0,-58,-39,-136,-117,-58,-39,-39
-39,-82,-43,61,2,-63,-39,-136,-117,-58,-39,-39
-39,-87,-48,63,4,-68,-39,-136,-117,-58,-39,-39
-39,-87,-48,63,4,-68,-39,-136,-117,-58,-39,-39
-39,-87,-48,63,4,-68,-39,-136,-117,-58,-39,-39
-39,-87,-48,63,4,-68,-39,-136,-122,-58,-39,-39
-39,-87,-48,63,4,-68,-39,-136,-126,-58,-39,-39
-39,-87,-48,63,4,-68,-39,-136,-126,-58,-43,-43
-39,-87,-48,63,4,-68,-39,-136,-126,-58,-48,-48
-39,-87,-48,63,4,-68,-39,-136,-122,-58,-48,-48
-39,-87,-48,63,4,-68,-39,-136,-117,-58,-48,-48
-34,-82,-48,58,7,-65,-29,-126,-107,-53,-43,-43
-29,-78,-48,53,9,-63,-19,-117,-97,-48,-39,-39
-29,-78,-48,53,9,-63,-14,-107,-92,-48,-39,-39
-19,-73,-53,46,17,-63,-4,-97,-87,-39,-29,-34
-14,-68,-53,41,19,-61,0,-87,-82,-34,-24,-34
-4,-68,-63,36,29,-65,14,-73,-73,-29,-19,-29
0,-68,-68,34,34,-68,29,-68,-68,-24,-19,-29
9,-58,-68,24,39,-63,39,-53,-53,-19,-14,-29
9,-48,-58,19,34,-53,39,-34,-43,-9,-14,-19
24,-24,-48,0,36,-36,39,-29,-34,9,4,0
48,-4,-53,-21,51,-29,24,-24,-34,9,9,0
63,-4,-68,-29,65,-36,29,-14,-34,9,9,4
82,-29,-112,-26,97,-70,14,-9,-39,9,9,0
102,-48,-151,-26,126,-100,4,-9,-58,0,0,-9
107,-34,-141,-36,124,-87,-4,-24,-68,-9,-4,-9
107,-19,-126,-43,117,-73,-34,-43,-82,-14,-4,-9
92,-9,-102,-41,97,-56,-48,-73,-97,-24,-4,0
78,-24,-102,-26,90,-63,-68,-117,-117,-43,-14,-14
68,-34,-102,-17,85,-68,-87,-131,-122,-43,-19,-14
78,-34,-112,-21,95,-73,-97,-131,-122,-43,-19,-9
92,-34,-126,-29,109,-80,-107,-117,-126,-39,-9,-4
117,-34,-151,-41,134,-92,-112,-117,-126,-39,-4,0
117,-24,-141,-46,129,-82,-112,-122,-126,-39,-4,0
112,-24,-136,-43,124,-80,-112,-122,-136,-43,-9,0
102,-29,-131,-36,117,-80,-112,-136,-136,-48,-19,-9
87,-34,-122,-26,104,-78,-117,-146,-146,-53,-29,-14
73,-39,-112,-17,92,-75,-107,-146,-146,-53,-34,-14
68,-48,-117,-9,92,-82,-97,-146,-141,-53,-39,-19
34,-58,-92,12,63,-75,-82,-141,-131,-53,-39,-24
-9,-63,-53,36,21,-58,-63,-131,-122,-53,-39,-24
-29,-73,-43,51,7,-58,-48,-131,-117,-53,-43,-34
-43,-82,-39,63,-2,-61,-48,-136,-117,-53,-43,-34
-43,-87,-43,65,0,-65,-48,-146,-126,-53,-43,-43
-48,-87,-39,68,-4,-63,-43,-156,-126,-58,-43,-43
-48,-87,-39,68,-4,-63,-43,-156,-126,-58,-43,-43
-48,-87,-39,68,-4,-63,-43,-156,-122,-58,-39,-43
-53,-92,-39,73,-7,-65,-39,-151,-126,-53,-39,-43
-58,-92,-34,75,-12,-63,-34,-151,-131,-53,-39,-43
-63,-97,-34,80,-14,-65,-29,-151,-131,-53,-39,-43
-68,-97,-29,82,-19,-63,-29,-151,-126,-53,-39,-43
-73,-97,-24,85,-24,-61,-29,-151,-126,-53,-39,-43
-78,-97,-19,87,-29,-58,-29,-151,-126,-53,-39,-43
-82,-102,-19,92,-31,-61,-14,-146,-117,-53,-43,-48
-87,-117,-29,102,-29,-73,19,-102,-102,-58,-58,-63
-97,-136,-39,117,-29,-87,87,-4,-43,-68,-82,-92
-112,-141,-29,126,-41,-85,209,185,117,-43,-92,-122
-48,-34,14,41,-31,-9,263,439,356,112,9,-63
190,204,14,-197,87,109,200,858,668,375,248,112
517,556,39,-536,239,297,-68,951,863,697,570,390
834,966,131,-900,351,549,-439,634,849,1024,932,697
1156,1454,297,-1305,429,875,-878,204,702,1395,1332,1058
1337,1917,580,-1627,378,1249,-1205,-263,497,1712,1683,1376
1317,2230,912,-1773,202,1571,-1351,-917,82,1766,1844,1566
1185,2332,1146,-1759,19,1739,-1434,-1664,-639,1522,1756,1605
605,1844,1239,-1224,-317,1542,-1132,-2454,-1371,917,1332,1351
4,873,868,-439,-431,871,-561,-2605,-1781,73,561,751
-268,82,351,92,-309,217,-102,-2161,-1800,-556,-102,195
-302,-204,97,253,-200,-53,0,-1673,-1659,-678,-283,4
-361,-405,-43,383,-158,-224,4,-1288,-1459,-717,-395,-146
-458,-522,-63,490,-197,-292,39,-1015,-1224,-673,-453,-273
-458,-595,-136,527,-161,-366,122,-751,-980,-605,-453,-326
-366,-566,-200,466,-82,-383,253,-439,-683,-468,-380,-307
-283,-483,-200,383,-41,-341,361,-175,-448,-341,-302,-248
-190,-351,-161,270,-14,-256,317,-9,-263,-239,-204,-185
-141,-258,-117,200,-12,-187,190,-9,-165,-175,-156,-141
-112,-209,-97,161,-7,-153,131,-9,-97,-131,-126,-122
-92,-151,-58,122,-17,-104,97,19,-39,-78,-87,-92
-87,-112,-24,100,-31,-68,92,53,0,-58,-63,-73
-73,-87,-14,80,-29,-51,73,78,39,-39,-48,-68
-68,-82,-14,75,-26,-48,73,87,68,-29,-48,-63
-68,-82,-14,75,-26,-48,82,107,82,-14,-43,-58
-68,-78,-9,73,-29,-43,82,117,87,-9,-39,-53
-68,-78,-9,73,-29,-43,73,122,102,-9,-34,-53
-68,-73,-4,70,-31,-39,73,126,122,-4,-34,-48
-63,-68,-4,65,-29,-36,73,136,122,4,-29,-48
-63,-68,-4,65,-29,-36,73,146,126,9,-24,-48
-58,-53,4,56,-31,-24,68,146,131,9,-24,-43
-58,-43,14,51,-36,-14,68,151,136,9,-19,-43
-53,-43,9,48,-31,-17,68,165,151,19,-14,-43
-53,-39,14,46,-34,-12,68,170,156,24,-9,-39
-53,-34,19,43,-36,-7,73,175,165,29,-9,-34
-53,-34,19,43,-36,-7,73,185,170,34,-9,-34
-48,-29,19,39,-34,-4,73,195,180,34,-9,-34
-43,-29,14,36,-29,-7,73,200,190,34,-4,-29
-43,-29,14,36,-29,-7,73,204,195,39,-4,-29
-43,-29,14,36,-29,-7,73,214,204,43,-4,-29
-43,-24,19,34,-31,-2,73,224,214,43,0,-29
-39,-24,14,31,-26,-4,78,234,224,48,0,-29
-39,-19,19,29,-29,0,78,244,234,48,0,-29
-34,-19,14,26,-24,-2,78,248,239,53,0,-24
-34,-14,19,24,-26,2,82,263,248,58,4,-24
-34,-14,19,24,-26,2,82,273,263,58,9,-24
-29,-9,19,19,-24,4,82,283,273,63,9,-24
-29,-4,24,17,-26,9,82,292,283,63,9,-24
-29,0,29,14,-29,14,82,307,292,68,9,-24
-24,4,29,9,-26,17,87,322,307,73,14,-19
-24,9,34,7,-29,21,87,341,322,73,14,-19
-19,9,29,4,-24,19,92,361,341,78,14,-19
-14,9,24,2,-19,17,92,380,356,82,19,-14
-14,14,29,0,-21,21,97,400,370,87,19,-14
-14,19,34,-2,-24,26,102,429,395,92,24,-14
-14,34,48,-9,-31,41,107,453,424,102,24,-14
-9,39,48,-14,-29,43,112,478,444,102,29,-9
-4,43,48,-19,-26,46,122,507,463,102,34,-9
-4,53,58,-24,-31,56,122,531,488,112,34,-9
-4,58,63,-26,-34,61,131,570,517,117,34,-9
-4,68,73,-31,-39,70,131,605,541,117,34,-9
0,78,78,-39,-39,78,146,644,566,122,34,-4
0,82,82,-41,-41,82,156,678,585,122,34,-4
0,92,92,-46,-46,92,165,712,610,126,34,-4
4,97,92,-51,-43,95,170,746,634,126,34,-4
4,107,102,-56,-48,104,185,775,653,122,24,-4
0,107,107,-53,-53,107,200,805,678,112,19,-9
0,112,112,-56,-56,112,204,834,683,107,9,-14
-9,112,122,-51,-65,117,219,854,692,102,0,-19
-9,117,126,-53,-68,122,224,868,697,97,-9,-24
-19,122,141,-51,-80,131,229,873,697,78,-24,-34
-24,122,146,-48,-85,134,234,873,683,53,-34,-39
-34,112,146,-39,-90,129,234,844,653,24,-53,-48
-43,102,146,-29,-95,124,234,805,619,-4,-73,-58
-58,82,141,-12,-100,112,234,751,566,-39,-97,-68
-68,63,131,2,-100,97,224,697,502,-78,-122,-82
-68,34,102,17,-85,68,214,624,429,-112,-141,-92
-68,4,73,31,-70,39,204,551,356,-146,-161,-107
-68,-29,39,48,-53,4,195,478,292,-170,-175,-117
-63,-58,4,61,-34,-26,180,409,239,-190,-185,-122
-63,-78,-14,70,-24,-46,161,331,170,-200,-190,-122
-63,-92,-29,78,-17,-61,136,263,112,-200,-195,-122
-63,-107,-43,85,-9,-75,117,185,63,-200,-185,-122
-58,-112,-53,85,-2,-82,102,126,29,-200,-175,-112
-58,-112,-53,85,-2,-82,78,78,-4,-185,-161,-102
-53,-112,-58,82,2,-85,58,34,-34,-165,-136,-92
-53,-112,-58,82,2,-85,43,-4,-48,-146,-126,-87
-48,-112,-63,80,7,-87,24,-24,-58,-126,-107,-73
-43,-102,-58,73,7,-80,9,-43,-73,-112,-87,-63
-43,-92,-48,68,2,-70,0,-63,-87,-97,-82,-58
-43,-87,-43,65,0,-65,-9,-82,-87,-92,-73,-53
-43,-82,-39,63,-2,-61,-14,-92,-87,-78,-58,-43
-34,-82,-48,58,7,-65,-14,-97,-87,-63,-48,-43
-29,-78,-48,53,9,-63,-19,-102,-92,-53,-43,-39
-29,-78,-48,53,9,-63,-19,-102,-92,-53,-39,-34
-29,-78,-48,53,9,-63,-24,-102,-92,-48,-34,-29
-29,-73,-43,51,7,-58,-24,-102,-92,-39,-29,-29
-29,-68,-39,48,4,-53,-24,-102,-92,-39,-24,-29
-24,-68,-43,46,9,-56,-24,-102,-87,-34,-29,-29
-24,-68,-43,46,9,-56,-24,-102,-87,-34,-34,-29
-24,-68,-43,46,9,-56,-24,-102,-87,-34,-29,-29
-24,-63,-39,43,7,-51,-24,-97,-82,-29,-29,-24
-24,-63,-39,43,7,-51,-24,-97,-78,-29,-24,-24
-24,-63,-39,43,7,-51,-24,-92,-78,-29,-19,-24
-24,-63,-39,43,7,-51,-19,-92,-78,-29,-19,-24
-24,-63,-39,43,7,-51,-19,-92,-78,-29,-19,-24
-24,-63,-39,43,7,-51,-19,-97,-78,-34,-19,-24
-24,-58,-34,41,4,-46,-19,-97,-73,-34,-14,-24
-29,-58,-29,43,0,-43,-24,-92,-73,-34,-19,-24
-34,-58,-24,46,-4,-41,-29,-92,-68,-34,-24,-24
-34,-58,-24,46,-4,-41,-29,-87,-68,-34,-24,-24
-34,-58,-24,46,-4,-41,-29,-82,-68,-34,-24,-24
-34,-58,-24,46,-4,-41,-29,-82,-68,-29,-24,-24
-34,-58,-24,46,-4,-41,-29,-82,-68,-29,-24,-24
-34,-58,-24,46,-4,-41,-24,-82,-68,-34,-24,-24
-34,-58,-24,46,-4,-41,-19,-82,-68,-34,-24,-24
-34,-58,-24,46,-4,-41,-19,-82,-68,-34,-24,-24
-39,-63,-24,51,-7,-43,-19,-82,-68,-34,-29,-24
-39,-68,-29,53,-4,-48,-19,-82,-68,-34,-29,-24
-39,-68,-29,53,-4,-48,-19,-82,-68,-34,-24,-24
-39,-68,-29,53,-4,-48,-19,-92,-68,-34,-24,-24
-39,-68,-29,53,-4,-48,-19,-97,-73,-39,-24,-24
-39,-68,-29,53,-4,-48,-19,-97,-73,-39,-29,-24
-39,-63,-24,51,-7,-43,-19,-97,-78,-39,-29,-24
-39,-68,-29,53,-4,-48,-19,-92,-78,-39,-29,-24
-39,-68,-29,53,-4,-48,-19,-92,-78,-39,-24,-24
-39,-68,-29,53,-4,-48,-19,-92,-82,-39,-24,-24
-39,-68,-29,53,-4,-48,-19,-92,-82,-39,-24,-24
-39,-68,-29,53,-4,-48,-19,-97,-87,-43,-24,-24
-39,-68,-29,53,-4,-48,-24,-97,-87,-43,-24,-24
-39,-68,-29,53,-4,-48,-24,-102,-87,-43,-29,-34
-39,-68,-29,53,-4,-48,-24,-102,-92,-48,-34,-39
-39,-68,-29,53,-4,-48,-29,-107,-92,-48,-39,-39
-39,-73,-34,56,-2,-53,-29,-107,-92,-48,-39,-39
-43,-73,-29,58,-7,-51,-29,-107,-97,-48,-39,-39
-43,-73,-29,58,-7,-51,-29,-112,-97,-48,-39,-39
-43,-73,-29,58,-7,-51,-29,-112,-102,-48,-39,-39
-43,-73,-29,58,-7,-51,-29,-112,-102,-53,-39,-39
-43,-73,-29,58,-7,-51,-34,-117,-107,-53,-39,-39
-43,-73,-29,58,-7,-51,-34,-117,-107,-53,-39,-39
-43,-73,-29,58,-7,-51,-34,-117,-107,-53,-39,-39
-43,-73,-29,58,-7,-51,-34,-122,-107,-53,-39,-34
-43,-73,-29,58,-7,-51,-34,-126,-107,-53,-39,-34
-43,-73,-29,58,-7,-51,-34,-131,-107,-53,-39,-34
-43,-73,-29,58,-7,-51,-34,-131,-112,-53,-39,-39
-43,-73,-29,58,-7,-51,-34,-131,-112,-53,-39,-43
-43,-78,-34,61,-4,-56,-34,-136,-112,-53,-39,-43
-43,-78,-34,61,-4,-56,-34,-136,-112,-58,-39,-43
-43,-78,-34,61,-4,-56,-29,-131,-112,-58,-43,-43
-43,-78,-34,61,-4,-56,-29,-126,-117,-58,-43,-43
-43,-78,-34,61,-4,-56,-29,-131,-117,-58,-43,-43
-43,-78,-34,61,-4,-56,-29,-131,-117,-58,-43,-43
-39,-78,-39,58,0,-58,-34,-131,-117,-58,-43,-43
-39,-78,-39,58,0,-58,-34,-131,-117,-58,-43,-43
-39,-78,-39,58,0,-58,-34,-136,-117,-58,-43,-43
-39,-78,-39,58,0,-58,-34,-141,-117,-58,-43,-43
-39,-82,-43,61,2,-63,-34,-141,-117,-58,-43,-43
-43,-87,-43,65,0,-65,-34,-141,-112,-58,-39,-43
-39,-82,-43,61,2,-63,-39,-136,-117,-53,-39,-43
-39,-82,-43,61,2,-63,-43,-136,-122,-53,-39,-39
-43,-78,-34,61,-4,-56,-43,-136,-122,-58,-39,-39
-43,-73,-29,58,-7,-51,-43,-136,-122,-63,-39,-39
-43,-73,-29,58,-7,-51,-48,-136,-122,-63,-39,-39
-43,-78,-34,61,-4,-56,-53,-141,-122,-63,-39,-39
-43,-82,-39,63,-2,-61,-48,-146,-112,-68,-48,-39
-43,-82,-39,63,-2,-61,-48,-146,-122,-63,-53,-39
-48,-82,-34,65,-7,-58,-48,-146,-122,-58,-53,-39
-48,-82,-34,65,-7,-58,-48,-146,-117,-58,-53,-39
-53,-92,-39,73,-7,-65,-43,-141,-117,-63,-48,-43
-48,-82,-34,65,-7,-58,-43,-136,-117,-63,-48,-39
-48,-82,-34,65,-7,-58,-48,-136,-122,-63,-48,-39
-53,-82,-29,68,-12,-56,-48,-141,-122,-58,-39,-34
-48,-82,-34,65,-7,-58,-48,-146,-122,-58,-39,-39
-39,-78,-39,58,0,-58,-48,-146,-122,-58,-43,-43
-39,-82,-43,61,2,-63,-48,-141,-122,-58,-43,-48
-43,-92,-48,68,2,-70,-48,-136,-122,-63,-48,-53
-43,-87,-43,65,0,-65,-43,-136,-117,-58,-48,-43
-48,-87,-39,68,-4,-63,-39,-136,-117,-58,-48,-39
-43,-82,-39,63,-2,-61,-34,-131,-112,-53,-48,-39
-39,-78,-39,58,0,-58,-29,-126,-107,-48,-48,-39
-39,-78,-39,58,0,-58,-24,-122,-102,-48,-53,-39
-29,-73,-43,51,7,-58,-14,-112,-97,-39,-48,-34
-24,-68,-43,46,9,-56,-9,-107,-92,-34,-43,-34
-14,-68,-53,41,19,-61,4,-92,-82,-29,-39,-29
-4,-68,-63,36,29,-65,19,-82,-78,-34,-39,-34
9,-58,-68,24,39,-63,29,-63,-63,-39,-34,-39
9,-53,-63,21,36,-58,29,-43,-48,-29,-34,-34
24,-34,-58,4,41,-46,29,-39,-34,-9,-14,-19
48,-14,-63,-17,56,-39,9,-34,-29,-9,-9,-19
63,-14,-78,-24,70,-46,9,-24,-24,-9,-9,-14
82,-29,-112,-26,97,-70,-4,-14,-29,-9,-9,-14
102,-39,-141,-31,122,-90,-14,-9,-48,-19,-19,-19
112,-39,-151,-36,131,-95,-14,-14,-53,-24,-24,-19
117,-39,-156,-39,136,-97,-34,-24,-63,-24,-24,-19
107,-19,-126,-43,117,-73,-43,-48,-78,-29,-19,-9
97,-24,-122,-36,109,-73,-58,-87,-97,-43,-24,-24
82,-34,-117,-24,100,-75,-78,-117,-107,-43,-29,-24
87,-34,-122,-26,104,-78,-87,-131,-112,-43,-29,-19
97,-34,-131,-31,114,-82,-102,-117,-122,-43,-24,-14
117,-34,-151,-41,134,-92,-112,-117,-126,-48,-24,-9
126,-24,-151,-51,139,-87,-117,-122,-126,-48,-24,-9
131,-24,-156,-53,143,-90,-122,-122,-136,-53,-29,-9
122,-29,-151,-46,136,-90,-117,-136,-136,-58,-34,-19
107,-34,-141,-36,124,-87,-117,-146,-146,-63,-39,-24
78,-39,-117,-19,97,-78,-107,-146,-146,-63,-43,-24
58,-48,-107,-4,82,-78,-97,-146,-141,-63,-48,-29
34,-63,-97,14,65,-80,-87,-146,-136,-63,-48,-34
0,-73,-73,36,36,-73,-73,-141,-131,-63,-48,-34
-24,-78,-53,51,14,-65,-58,-141,-126,-63,-53,-39
-43,-82,-39,63,-2,-61,-58,-146,-126,-63,-53,-34
-43,-87,-43,65,0,-65,-58,-151,-136,-63,-58,-43
-48,-87,-39,68,-4,-63,-53,-156,-136,-68,-63,-43
-53,-87,-34,70,-9,-61,-53,-161,-136,-68,-63,-43
-58,-87,-29,73,-14,-58,-53,-165,-131,-68,-58,-43
-63,-92,-29,78,-17,-61,-48,-161,-131,-63,-53,-43
-68,-92,-24,80,-21,-58,-43,-161,-131,-63,-48,-43
-68,-97,-29,82,-19,-63,-39,-161,-131,-63,-48,-43
-68,-97,-29,82,-19,-63,-39,-161,-126,-63,-48,-43
-73,-97,-24,85,-24,-61,-39,-161,-126,-58,-48,-43
-78,-97,-19,87,-29,-58,-39,-161,-126,-53,-48,-43
-82,-102,-19,92,-31,-61,-39,-175,-126,-53,-53,-48
-87,-117,-29,102,-29,-73,-19,-151,-122,-58,-68,-63
-107,-156,-48,131,-29,-102,39,-112,-126,-102,-107,-102
-131,-180,-48,156,-41,-114,151,19,-29,-112,-131,-141
-156,-151,4,153,-80,-73,292,273,185,-29,-117,-156
-4,9,14,-2,-9,12,317,692,473,161,34,-53
322,297,-24,-309,173,136,136,1005,785,448,312,180
639,644,4,-641,317,324,-146,907,888,741,629,444
1063,1141,78,-1102,492,610,-653,556,839,1151,1063,829
1346,1615,268,-1481,539,941,-1049,165,732,1507,1449,1171
1468,2142,673,-1805,397,1407,-1307,-409,502,1790,1790,1488
1478,2459,980,-1969,248,1720,-1503,-1078,-34,1776,1883,1654
902,2215,1312,-1559,-204,1764,-1342,-2205,-941,1298,1629,1576
307,1488,1180,-897,-436,1334,-912,-2693,-1527,580,1029,1151
-117,468,585,-175,-351,527,-278,-2361,-1708,-273,165,444
-302,-48,253,175,-278,102,0,-1986,-1727,-619,-214,102
-356,-292,63,324,-209,-114,-14,-1556,-1566,-707,-356,-68
-448,-453,-4,451,-222,-229,0,-1239,-1371,-712,-444,-214
-497,-590,-92,544,-202,-341,53,-980,-1141,-668,-483,-317
-453,-624,-170,539,-141,-397,156,-673,-858,-556,-448,-346
-356,-556,-200,456,-78,-378,341,-331,-590,-414,-361,-287
-248,-439,-190,344,-29,-314,375,-87,-370,-297,-253,-224
-175,-317,-141,246,-17,-229,229,-63,-244,-219,-200,-170
-122,-239,-117,180,-2,-178,151,-39,-146,-161,-165,-141
-102,-180,-78,141,-12,-129,112,-4,-82,-97,-122,-107
-97,-141,-43,119,-26,-92,102,34,-39,-68,-92,-82
-82,-102,-19,92,-31,-61,78,63,9,-43,-68,-78
-78,-82,-4,80,-36,-43,73,78,48,-29,-58,-73
-78,-82,-4,80,-36,-43,82,97,63,-14,-53,-68
-78,-78,0,78,-39,-39,82,107,68,-9,-48,-63
-73,-73,0,73,-36,-36,73,112,82,-9,-43,-63
-68,-63,4,65,-36,-29,73,117,102,-4,-43,-58
-63,-58,4,61,-34,-26,73,126,107,4,-39,-53
-63,-58,4,61,-34,-26,73,136,117,9,-34,-48
-58,-53,4,56,-31,-24,68,136,122,9,-34,-43
-58,-53,4,56,-31,-24,68,141,126,9,-29,-43
-53,-53,0,53,-26,-26,68,156,141,14,-24,-48
-53,-48,4,51,-29,-21,68,161,146,14,-19,-48
-53,-43,9,48,-31,-17,68,165,156,19,-19,-43
-53,-43,9,48,-31,-17,63,175,161,24,-19,-43
-48,-39,9,43,-29,-14,63,185,170,24,-19,-43
-43,-39,4,41,-24,-17,63,190,180,24,-14,-39
-43,-34,9,39,-26,-12,63,195,185,29,-14,-39
-43,-29,14,36,-29,-7,63,204,195,34,-14,-39
-43,-24,19,34,-31,-2,63,214,204,39,-9,-39
-39,-24,14,31,-26,-4,68,224,214,48,-9,-39
-39,-19,19,29,-29,0,68,234,224,48,-9,-39
-34,-19,14,26,-24,-2,68,239,229,53,-9,-34
-39,-14,24,26,-31,4,73,253,234,53,-9,-34
-43,-14,29,29,-36,7,73,263,244,48,-9,-34
-39,-9,29,24,-34,9,73,273,253,53,-9,-34
-39,-4,34,21,-36,14,73,283,263,53,-9,-34
-34,0,34,17,-34,17,78,292,273,58,-9,-34
-24,4,29,9,-26,17,87,302,287,63,-4,-29
-24,9,34,7,-29,21,87,322,297,63,-4,-29
-19,9,29,4,-24,19,92,341,312,68,-4,-29
-14,9,24,2,-19,17,92,361,326,73,0,-24
-14,14,29,0,-21,21,97,380,341,78,0,-24
-14,14,29,0,-21,21,97,409,361,82,4,-24
-14,24,39,-4,-26,31,97,434,385,92,4,-24
-9,29,39,-9,-24,34,102,458,405,92,9,-19
-4,34,39,-14,-21,36,112,488,424,92,14,-19
-9,48,58,-19,-34,53,112,507,439,102,14,-19
-14,58,73,-21,-43,65,122,541,458,107,14,-19
-14,68,82,-26,-48,75,122,570,483,107,14,-19
-9,78,87,-34,-48,82,136,605,507,112,14,-14
-9,78,87,-34,-48,82,146,639,536,112,14,-14
-9,82,92,-36,-51,87,156,673,570,117,14,-14
-4,87,92,-41,-48,90,161,712,595,122,19,-14
-4,97,102,-46,-53,100,175,746,614,122,14,-14
-4,102,107,-48,-56,104,185,775,644,117,14,-19
0,112,112,-56,-56,112,185,805,653,117,9,-24
-9,112,122,-51,-65,117,204,839,668,112,0,-24
-9,117,126,-53,-68,122,214,868,678,107,-9,-24
-19,122,141,-51,-80,131,219,873,692,92,-24,-34
-24,122,146,-48,-85,134,224,873,692,73,-34,-39
-34,117,151,-41,-92,134,224,863,668,48,-48,-48
-43,112,156,-34,-100,134,224,844,639,24,-63,-58
-53,97,151,-21,-102,124,229,795,600,-9,-87,-68
-58,82,141,-12,-100,112,224,746,551,-48,-112,-82
-58,53,112,2,-85,82,214,678,478,-82,-136,-92
-58,24,82,17,-70,53,204,610,405,-117,-161,-107
-68,-9,58,39,-63,24,195,536,336,-156,-185,-122
-73,-39,34,56,-53,-2,180,468,278,-190,-204,-131
-73,-58,14,65,-43,-21,165,390,204,-204,-209,-136
-73,-73,0,73,-36,-36,146,322,141,-209,-214,-141
-73,-92,-19,82,-26,-56,126,239,87,-209,-209,-141
-68,-102,-34,85,-17,-68,112,175,48,-209,-204,-131
-63,-102,-39,82,-12,-70,87,122,9,-195,-190,-122
-53,-102,-48,78,-2,-75,68,73,-24,-175,-165,-112
-53,-102,-48,78,-2,-75,53,24,-43,-156,-156,-107
-48,-102,-53,75,2,-78,34,-4,-58,-136,-136,-92
-43,-102,-58,73,7,-80,19,-29,-68,-122,-112,-82
-43,-102,-58,73,7,-80,9,-53,-78,-107,-102,-78
-43,-97,-53,70,4,-75,0,-73,-82,-102,-92,-73
-43,-92,-48,68,2,-70,-4,-82,-87,-87,-78,-63
-39,-92,-53,65,7,-73,-4,-92,-87,-73,-68,-58
-39,-87,-48,63,4,-68,-9,-102,-92,-63,-63,-48
-39,-82,-43,61,2,-63,-9,-107,-92,-63,-58,-43
-39,-78,-39,58,0,-58,-14,-112,-92,-58,-53,-39
-39,-73,-34,56,-2,-53,-19,-112,-92,-48,-48,-39
-39,-68,-29,53,-4,-48,-24,-112,-92,-48,-43,-39
-34,-68,-34,51,0,-51,-29,-112,-87,-43,-43,-39
-34,-68,-34,51,0,-51,-34,-112,-87,-43,-43,-39
-29,-68,-39,48,4,-53,-34,-112,-87,-43,-39,-39
-24,-63,-39,43,7,-51,-34,-107,-82,-39,-39,-34
-24,-63,-39,43,7,-51,-29,-107,-78,-39,-39,-34
-24,-63,-39,43,7,-51,-24,-102,-78,-39,-39,-34
-24,-63,-39,43,7,-51,-19,-102,-82,-39,-39,-34
-24,-63,-39,43,7,-51,-19,-102,-87,-39,-39,-34
-24,-63,-39,43,7,-51,-19,-102,-87,-39,-39,-34
-24,-58,-34,41,4,-46,-19,-97,-82,-34,-34,-34
-29,-58,-29,43,0,-43,-19,-92,-82,-34,-34,-39
-34,-58,-24,46,-4,-41,-19,-92,-78,-34,-34,-43
-34,-58,-24,46,-4,-41,-19,-87,-78,-34,-39,-43
-34,-58,-24,46,-4,-41,-19,-82,-78,-34,-43,-43
-34,-58,-24,46,-4,-41,-19,-82,-73,-29,-43,-39
-34,-58,-24,46,-4,-41,-19,-82,-68,-29,-43,-34
-34,-58,-24,46,-4,-41,-19,-82,-68,-34,-43,-34
-34,-58,-24,46,-4,-41,-19,-82,-68,-34,-43,-34
-34,-58,-24,46,-4,-41,-19,-82,-73,-34,-39,-34
-39,-63,-24,51,-7,-43,-19,-82,-78,-34,-39,-34
-39,-63,-24,51,-7,-43,-19,-82,-78,-34,-39,-34
-39,-58,-19,48,-9,-39,-19,-82,-78,-34,-34,-34
-39,-58,-19,48,-9,-39,-19,-87,-78,-34,-34,-34
-39,-58,-19,48,-9,-39,-19,-87,-82,-39,-34,-34
-39,-63,-24,51,-7,-43,-19,-87,-82,-43,-39,-39
-39,-63,-24,51,-7,-43,-19,-87,-87,-48,-39,-43
-39,-68,-29,53,-4,-48,-19,-87,-87,-48,-43,-43
-39,-68,-29,53,-4,-48,-19,-92,-87,-48,-43,-43
-39,-68,-29,53,-4,-48,-19,-92,-92,-43,-43,-43
-39,-68,-29,53,-4,-48,-19,-92,-92,-39,-43,-43
-39,-63,-24,51,-7,-43,-19,-97,-97,-43,-43,-39
-39,-58,-19,48,-9,-39,-24,-97,-97,-43,-43,-34
-39,-58,-19,48,-9,-39,-24,-102,-97,-43,-43,-39
-39,-58,-19,48,-9,-39,-24,-102,-102,-48,-43,-39
-39,-63,-24,51,-7,-43,-29,-107,-102,-48,-48,-39
-39,-73,-34,56,-2,-53,-29,-107,-102,-48,-48,-39
-43,-73,-29,58,-7,-51,-29,-107,-107,-48,-48,-39
-43,-73,-29,58,-7,-51,-29,-112,-107,-48,-48,-39
-43,-73,-29,58,-7,-51,-29,-112,-107,-48,-48,-43
-43,-73,-29,58,-7,-51,-29,-112,-102,-53,-48,-48
-43,-73,-29,58,-7,-51,-34,-117,-107,-53,-48,-48
-43,-73,-29,58,-7,-51,-34,-117,-107,-53,-48,-48
-43,-73,-29,58,-7,-51,-34,-117,-107,-53,-48,-48
-43,-73,-29,58,-7,-51,-34,-122,-107,-53,-48,-43
-39,-73,-34,56,-2,-53,-34,-126,-107,-58,-48,-43
-34,-73,-39,53,2,-56,-34,-131,-107,-63,-48,-43
-34,-73,-39,53,2,-56,-34,-131,-112,-63,-48,-43
-34,-73,-39,53,2,-56,-34,-131,-112,-63,-48,-43
-34,-78,-43,56,4,-61,-34,-136,-112,-63,-48,-43
-34,-78,-43,56,4,-61,-34,-136,-112,-68,-48,-43
-34,-78,-43,56,4,-61,-34,-136,-112,-68,-53,-43
-34,-78,-43,56,4,-61,-39,-136,-117,-68,-53,-43
-34,-78,-43,56,4,-61,-39,-136,-117,-68,-53,-48
-34,-78,-43,56,4,-61,-39,-131,-117,-68,-53,-53
-39,-78,-39,58,0,-58,-39,-131,-117,-63,-53,-53
-48,-78,-29,63,-9,-53,-34,-131,-117,-58,-53,-53
-48,-78,-29,63,-9,-53,-39,-136,-122,-58,-53,-48
-48,-78,-29,63,-9,-53,-43,-141,-126,-58,-53,-43
-43,-78,-34,61,-4,-56,-43,-141,-126,-63,-53,-43
-43,-78,-34,61,-4,-56,-43,-141,-122,-68,-48,-43
-39,-78,-39,58,0,-58,-43,-136,-122,-63,-53,-43
-39,-82,-43,61,2,-63,-43,-136,-122,-63,-58,-39
-43,-82,-39,63,-2,-61,-43,-136,-122,-63,-58,-39
-43,-82,-39,63,-2,-61,-43,-136,-122,-63,-58,-39
-43,-78,-34,61,-4,-56,-43,-136,-126,-63,-58,-39
-43,-78,-34,61,-4,-56,-43,-141,-131,-63,-58,-39
-43,-78,-34,61,-4,-56,-39,-146,-122,-68,-58,-43
-43,-73,-29,58,-7,-51,-39,-146,-131,-63,-53,-48
-48,-73,-24,61,-12,-48,-39,-146,-131,-58,-58,-48
-48,-73,-24,61,-12,-48,-39,-146,-126,-58,-63,-48
-53,-78,-24,65,-14,-51,-39,-146,-126,-63,-58,-53
-48,-63,-14,56,-17,-39,-43,-146,-126,-63,-58,-48
-48,-68,-19,58,-14,-43,-39,-146,-126,-63,-58,-48
-48,-78,-29,63,-9,-53,-39,-146,-126,-63,-58,-53
-48,-78,-29,63,-9,-53,-43,-146,-126,-58,-58,-48
-48,-78,-29,63,-9,-53,-48,-146,-126,-58,-58,-48
-39,-73,-34,56,-2,-53,-39,-136,-122,-58,-58,-48
-29,-68,-39,48,4,-53,-29,-126,-117,-58,-58,-48
-29,-68,-39,48,4,-53,-24,-117,-112,-58,-58,-48
-19,-63,-43,41,12,-53,-14,-107,-107,-48,-53,-43
-14,-63,-48,39,17,-56,-9,-97,-102,-43,-48,-43
-4,-68,-63,36,29,-65,4,-82,-92,-39,-48,-39
0,-68,-68,34,34,-68,19,-78,-87,-39,-48,-39
9,-58,-68,24,39,-63,29,-63,-73,-39,-43,-39
9,-53,-63,21,36,-58,34,-43,-58,-29,-39,-34
24,-34,-58,4,41,-46,39,-39,-43,-9,-14,-19
48,-14,-63,-17,56,-39,14,-39,-43,-9,-9,-19
63,-14,-78,-24,70,-46,9,-34,-43,-9,-9,-14
78,-29,-107,-24,92,-68,0,-29,-48,-9,-14,-19
92,-39,-131,-26,112,-85,-4,-29,-68,-19,-29,-29
97,-39,-136,-29,117,-87,-9,-39,-73,-29,-34,-29
97,-39,-136,-29,117,-87,-34,-53,-82,-34,-34,-29
87,-24,-112,-31,100,-68,-43,-78,-97,-39,-29,-14
78,-34,-112,-21,95,-73,-58,-117,-117,-53,-34,-24
68,-43,-112,-12,90,-78,-82,-131,-126,-53,-39,-24
78,-43,-122,-17,100,-82,-97,-131,-131,-53,-39,-19
87,-39,-126,-24,107,-82,-107,-117,-136,-53,-34,-14
107,-34,-141,-36,124,-87,-112,-117,-136,-58,-34,-9
112,-24,-136,-43,124,-80,-112,-122,-131,-58,-34,-9
112,-24,-136,-43,124,-80,-112,-122,-136,-63,-39,-9
102,-34,-136,-34,119,-85,-107,-136,-136,-63,-39,-19
87,-43,-131,-21,109,-87,-107,-146,-146,-63,-39,-24
63,-48,-112,-7,87,-80,-97,-146,-146,-63,-43,-24
48,-58,-107,4,78,-82,-87,-146,-141,-63,-48,-29
24,-68,-92,21,58,-80,-78,-146,-136,-63,-48,-34
-9,-73,-63,41,26,-68,-63,-141,-131,-63,-48,-34
-29,-78,-48,53,9,-63,-48,-141,-126,-63,-53,-43
-43,-82,-39,63,-2,-61,-48,-146,-126,-63,-53,-43
-43,-87,-43,65,0,-65,-48,-156,-136,-63,-58,-53
-48,-87,-39,68,-4,-63,-43,-165,-136,-68,-63,-53
-48,-87,-39,68,-4,-63,-43,-165,-136,-68,-58,-53
-48,-87,-39,68,-4,-63,-43,-165,-131,-68,-48,-53
-53,-92,-39,73,-7,-65,-39,-156,-131,-63,-48,-53
-58,-92,-34,75,-12,-63,-34,-151,-131,-63,-48,-53
-58,-97,-39,78,-9,-68,-29,-151,-131,-63,-53,-53
-58,-97,-39,78,-9,-68,-29,-151,-126,-63,-58,-53
-63,-97,-34,80,-14,-65,-29,-151,-126,-63,-58,-53
-68,-97,-29,82,-19,-63,-29,-151,-126,-63,-58,-53
-73,-102,-29,87,-21,-65,-14,-141,-117,-63,-63,-58
-78,-117,-39,97,-19,-78,19,-92,-102,-68,-78,-73
-87,-136,-48,112,-19,-92,87,4,-39,-68,-92,-97
-102,-141,-39,122,-31,-90,209,195,126,-34,-92,-122
-39,-24,14,31,-26,-4,268,473,395,146,24,-53
200,224,24,-212,87,124,209,917,736,434,278,131
527,575,48,-551,239,312,-58,1058,951,756,610,409
844,985,141,-915,351,563,-429,790,956,1083,980,717
1176,1459,283,-1317,446,871,-868,375,824,1444,1366,1068
1366,1908,541,-1637,412,1224,-1195,-78,634,1751,1703,1376
1337,2278,941,-1808,197,1610,-1351,-741,258,1844,1888,1586
1195,2440,1244,-1817,-24,1842,-1444,-1498,-424,1639,1825,1644
605,1961,1356,-1283,-375,1659,-1127,-2337,-1190,1049,1400,1390
-4,1000,1005,-497,-505,1002,-541,-2537,-1634,219,629,790
-292,180,473,56,-383,326,-39,-2113,-1698,-453,-53,219
-341,-136,204,239,-273,34,107,-1644,-1600,-619,-253,14
-390,-366,24,378,-207,-170,82,-1263,-1429,-688,-385,-151
-478,-512,-34,495,-222,-273,87,-995,-1224,-673,-463,-292
-483,-610,-126,546,-178,-368,151,-766,-1019,-629,-478,-346
-395,-605,-209,500,-92,-407,263,-488,-761,-517,-419,-326
-312,-527,-214,419,-48,-370,390,-204,-512,-380,-341,-268
-219,-400,-180,309,-19,-290,366,-19,-312,-268,-244,-204
-165,-302,-136,234,-14,-219,234,-19,-204,-204,-195,-161
-131,-248,-117,190,-7,-183,170,-19,-126,-161,-165,-141
-107,-185,-78,146,-14,-131,122,9,-63,-97,-117,-107
-97,-141,-43,119,-26,-92,102,43,-19,-68,-82,-82
-78,-107,-29,92,-24,-68,82,68,19,-48,-68,-78
-68,-92,-24,80,-21,-58,82,78,48,-39,-68,-73
-68,-92,-24,80,-21,-58,92,97,63,-24,-63,-68
-68,-87,-19,78,-24,-53,92,107,68,-19,-58,-63
-68,-82,-14,75,-26,-48,78,112,82,-19,-53,-63
-68,-73,-4,70,-31,-39,73,117,102,-14,-53,-58
-63,-68,-4,65,-29,-36,73,126,107,0,-48,-58
-63,-68,-4,65,-29,-36,73,136,117,9,-43,-58
-58,-58,0,58,-29,-29,68,136,122,9,-43,-53
-58,-53,4,56,-31,-24,68,141,126,9,-39,-53
-53,-53,0,53,-26,-26,68,156,146,19,-34,-53
-53,-48,4,51,-29,-21,68,161,156,24,-29,-48
-53,-43,9,48,-31,-17,68,165,165,29,-29,-43
-53,-43,9,48,-31,-17,63,175,170,34,-29,-43
-48,-39,9,43,-29,-14,63,185,175,34,-29,-48
-43,-39,4,41,-24,-17,63,190,180,34,-24,-48
-43,-34,9,39,-26,-12,63,195,185,34,-24,-48
-43,-29,14,36,-29,-7,63,204,195,34,-24,-48
-43,-24,19,34,-31,-2,63,214,209,34,-19,-48
-39,-24,14,31,-26,-4,68,224,224,39,-19,-48
-39,-19,19,29,-29,0,68,234,234,43,-19,-48
-34,-19,14,26,-24,-2,68,239,239,53,-19,-43
-29,-14,14,21,-21,0,73,253,248,58,-14,-43
-24,-14,9,19,-17,-2,73,263,263,58,-9,-43
-19,-9,9,14,-14,0,73,268,273,58,-9,-43
-19,-4,14,12,-17,4,73,273,283,53,-9,-43
-19,0,19,9,-19,9,73,287,292,58,-9,-43
-14,4,19,4,-17,12,78,302,307,63,-4,-39
-14,9,24,2,-19,17,78,322,317,63,-4,-39
-9,9,19,0,-14,14,82,341,331,68,-4,-39
-4,9,14,-2,-9,12,82,361,346,73,0,-34
-4,14,19,-4,-12,17,87,380,361,78,0,-34
-4,19,24,-7,-14,21,92,409,380,82,0,-34
-4,34,39,-14,-21,36,97,434,405,92,-4,-34
0,34,34,-17,-17,34,97,458,424,92,0,-29
4,34,29,-19,-12,31,102,488,444,92,4,-29
4,43,39,-24,-17,41,102,512,463,97,4,-29
4,48,43,-26,-19,46,112,551,488,97,4,-29
4,58,53,-31,-24,56,107,575,512,97,4,-29
9,68,58,-39,-24,63,117,605,536,102,4,-24
9,73,63,-41,-26,68,126,639,556,102,4,-24
9,82,73,-46,-31,78,136,673,580,107,4,-24
14,87,73,-51,-29,80,141,702,605,107,4,-24
14,97,82,-56,-34,90,156,727,624,102,-4,-24
9,97,87,-53,-39,92,165,756,653,92,-9,-29
9,102,92,-56,-41,97,165,785,663,87,-19,-34
0,102,102,-51,-51,102,185,810,673,78,-29,-39
0,107,107,-53,-53,107,195,829,678,68,-39,-43
-9,107,117,-48,-63,112,200,834,678,48,-53,-53
-14,102,117,-43,-65,109,204,834,663,24,-63,-58
-24,92,117,-34,-70,104,204,810,629,-4,-82,-68
-34,82,117,-24,-75,100,204,775,590,-34,-102,-78
-43,63,107,-9,-75,85,204,727,546,-68,-126,-87
-48,43,92,2,-70,68,195,678,492,-107,-151,-102
-48,14,63,17,-56,39,190,610,419,-141,-170,-112
-48,-14,34,31,-41,9,185,541,346,-175,-190,-126
-53,-43,9,48,-31,-17,180,468,283,-195,-204,-131
-53,-68,-14,61,-19,-41,170,400,229,-209,-214,-131
-53,-82,-29,68,-12,-56,156,322,156,-219,-214,-131
-53,-92,-39,73,-7,-65,136,253,92,-219,-214,-131
-53,-107,-53,80,0,-80,117,185,48,-214,-204,-131
-48,-112,-63,80,7,-87,102,136,19,-209,-195,-122
-48,-112,-63,80,7,-87,82,87,-14,-195,-180,-112
-43,-112,-68,78,12,-90,68,43,-43,-175,-156,-102
-48,-112,-63,80,7,-87,53,0,-63,-156,-146,-97
-48,-112,-63,80,7,-87,34,-24,-78,-136,-126,-82
-43,-107,-63,75,9,-85,19,-43,-87,-122,-97,-73
-43,-102,-58,73,7,-80,9,-63,-97,-107,-82,-68
-43,-97,-53,70,4,-75,0,-82,-97,-102,-82,-63
-43,-92,-48,68,2,-70,-4,-92,-97,-87,-78,-53
-39,-92,-53,65,7,-73,-9,-102,-97,-73,-68,-53
-39,-87,-48,63,4,-68,-19,-112,-102,-63,-63,-48
-39,-87,-48,63,4,-68,-19,-112,-102,-63,-58,-43
-39,-87,-48,63,4,-68,-24,-112,-102,-58,-53,-39
-39,-82,-43,61,2,-63,-24,-112,-102,-48,-48,-39
-39,-78,-39,58,0,-58,-24,-112,-102,-48,-43,-39
-34,-78,-43,56,4,-61,-24,-112,-97,-43,-43,-39
-34,-78,-43,56,4,-61,-24,-112,-97,-43,-43,-39
-34,-78,-43,56,4,-61,-24,-107,-97,-43,-39,-43
-34,-73,-39,53,2,-56,-24,-97,-92,-39,-39,-43
-34,-73,-39,53,2,-56,-24,-97,-87,-39,-39,-43
-34,-73,-39,53,2,-56,-24,-92,-87,-39,-39,-43
-34,-73,-39,53,2,-56,-19,-92,-87,-39,-39,-43
-34,-73,-39,53,2,-56,-19,-92,-87,-39,-39,-43
-34,-73,-39,53,2,-56,-19,-92,-87,-39,-39,-43
-34,-68,-34,51,0,-51,-19,-87,-82,-34,-34,-43
-34,-68,-34,51,0,-51,-19,-82,-82,-34,-34,-43
-34,-68,-34,51,0,-51,-19,-82,-78,-34,-34,-43
-34,-68,-34,51,0,-51,-14,-82,-78,-39,-34,-43
-34,-68,-34,51,0,-51,-9,-82,-78,-43,-34,-43
-34,-68,-34,51,0,-51,-9,-82,-78,-39,-34,-39
-34,-68,-34,51,0,-51,-9,-82,-78,-39,-34,-34
-34,-68,-34,51,0,-51,-14,-82,-78,-43,-34,-34
-34,-68,-34,51,0,-51,-19,-82,-78,-43,-34,-34
-29,-68,-39,48,4,-53,-19,-82,-78,-43,-34,-34
-29,-73,-43,51,7,-58,-19,-82,-78,-43,-39,-34
-29,-73,-43,51,7,-58,-19,-82,-78,-39,-39,-34
-29,-68,-39,48,4,-53,-19,-82,-78,-34,-34,-34
-34,-68,-34,51,0,-51,-19,-87,-78,-34,-34,-34
-39,-68,-29,53,-4,-48,-19,-87,-82,-39,-34,-34
-39,-73,-34,56,-2,-53,-19,-87,-82,-43,-39,-34
-39,-73,-34,56,-2,-53,-19,-87,-87,-48,-39,-34
-39,-78,-39,58,0,-58,-19,-87,-87,-48,-43,-34
-39,-78,-39,58,0,-58,-19,-92,-87,-48,-43,-34
-39,-78,-39,58,0,-58,-19,-92,-92,-48,-43,-39
-39,-78,-39,58,0,-58,-19,-92,-92,-48,-43,-43
-39,-78,-39,58,0,-58,-19,-97,-97,-48,-43,-43
-39,-78,-39,58,0,-58,-24,-97,-97,-43,-43,-43
-39,-78,-39,58,0,-58,-24,-102,-97,-43,-43,-43
-39,-78,-39,58,0,-58,-24,-102,-102,-48,-43,-39
-39,-78,-39,58,0,-58,-29,-107,-102,-48,-48,-39
-39,-82,-43,61,2,-63,-29,-107,-102,-48,-48,-39
-43,-82,-39,63,-2,-61,-29,-107,-107,-48,-48,-39
-43,-82,-39,63,-2,-61,-29,-112,-107,-48,-48,-39
-39,-82,-43,61,2,-63,-24,-112,-112,-48,-48,-39
-34,-82,-48,58,7,-65,-19,-112,-112,-53,-48,-39
-34,-82,-48,58,7,-65,-24,-117,-117,-53,-53,-39
-34,-82,-48,58,7,-65,-24,-117,-117,-53,-58,-39
-34,-87,-53,61,9,-70,-29,-117,-117,-53,-58,-43
-34,-92,-58,63,12,-75,-34,-122,-117,-53,-58,-43
-34,-92,-58,63,12,-75,-34,-122,-117,-53,-53,-43
-34,-92,-58,63,12,-75,-34,-122,-117,-53,-48,-43
-39,-87,-48,63,4,-68,-29,-122,-122,-53,-48,-43
-43,-82,-39,63,-2,-61,-24,-122,-122,-53,-48,-43
-43,-87,-43,65,0,-65,-24,-126,-122,-53,-48,-43
-43,-87,-43,65,0,-65,-24,-126,-122,-58,-48,-43
-43,-87,-43,65,0,-65,-29,-126,-122,-58,-53,-43
-43,-87,-43,65,0,-65,-39,-126,-126,-58,-53,-43
-43,-87,-43,65,0,-65,-39,-131,-126,-58,-53,-43
-43,-87,-43,65,0,-65,-39,-131,-126,-58,-53,-43
-43,-87,-43,65,0,-65,-39,-131,-126,-63,-53,-43
-48,-87,-39,68,-4,-63,-34,-131,-126,-68,-53,-43
-48,-87,-39,68,-4,-63,-34,-131,-126,-68,-53,-43
-48,-87,-39,68,-4,-63,-34,-131,-126,-68,-53,-43
-43,-92,-48,68,2,-70,-34,-131,-131,-63,-53,-43
-43,-97,-53,70,4,-75,-34,-131,-131,-58,-48,-43
-39,-92,-53,65,7,-73,-34,-131,-131,-53,-48,-43
-39,-92,-53,65,7,-73,-34,-136,-131,-53,-48,-39
-43,-92,-48,68,2,-70,-34,-136,-131,-58,-53,-43
-43,-92,-48,68,2,-70,-34,-136,-131,-63,-58,-48
-43,-92,-48,68,2,-70,-34,-136,-131,-63,-58,-48
-43,-97,-53,70,4,-75,-34,-141,-131,-63,-58,-48
-43,-97,-53,70,4,-75,-29,-146,-122,-68,-58,-48
-43,-92,-48,68,2,-70,-29,-146,-131,-63,-53,-48
-43,-87,-43,65,0,-65,-29,-141,-131,-63,-53,-48
-43,-87,-43,65,0,-65,-34,-136,-131,-63,-58,-48
-39,-87,-48,63,4,-68,-29,-131,-126,-58,-58,-48
-39,-87,-48,63,4,-68,-29,-126,-126,-58,-58,-48
-39,-87,-48,63,4,-68,-29,-126,-122,-58,-58,-48
-39,-87,-48,63,4,-68,-29,-126,-117,-58,-58,-48
-34,-82,-48,58,7,-65,-24,-122,-112,-58,-58,-48
-24,-73,-48,48,12,-61,-14,-112,-107,-48,-48,-43
-14,-68,-53,41,19,-61,-9,-107,-102,-43,-43,-43
-4,-68,-63,36,29,-65,4,-92,-92,-39,-39,-39
0,-73,-73,36,36,-73,19,-87,-87,-39,-39,-39
9,-68,-78,29,43,-73,29,-73,-73,-39,-34,-39
9,-58,-68,24,39,-63,39,-48,-53,-24,-34,-34
24,-34,-58,4,41,-46,48,-39,-34,0,-14,-19
39,-14,-53,-12,46,-34,29,-39,-34,0,-9,-14
43,-14,-58,-14,51,-36,29,-34,-34,0,-9,-4
58,-34,-92,-12,75,-63,19,-19,-29,-4,-9,-4
73,-48,-122,-12,97,-85,14,-9,-39,-19,-19,-9
87,-48,-136,-19,112,-92,9,-14,-53,-29,-24,-9
97,-48,-146,-24,122,-97,-14,-24,-73,-34,-24,-9
87,-34,-122,-26,104,-78,-24,-48,-87,-34,-24,0
78,-43,-122,-17,100,-82,-39,-87,-107,-43,-34,-14
68,-53,-122,-7,95,-87,-68,-122,-122,-43,-39,-14
78,-53,-131,-12,104,-92,-87,-141,-131,-43,-39,-9
87,-53,-141,-17,114,-97,-97,-117,-136,-43,-34,-9
107,-53,-161,-26,134,-107,-102,-107,-136,-48,-34,-9
117,-34,-151,-41,134,-92,-107,-112,-131,-48,-29,-9
122,-24,-146,-48,134,-85,-112,-112,-136,-53,-29,-9
117,-34,-151,-41,134,-92,-107,-126,-136,-58,-34,-19
107,-43,-151,-31,129,-97,-107,-136,-146,-63,-39,-24
87,-48,-136,-19,112,-92,-102,-136,-146,-63,-39,-24
78,-58,-136,-9,107,-97,-97,-136,-141,-63,-39,-29
53,-68,-122,7,87,-95,-87,-136,-131,-63,-39,-34
19,-73,-92,26,56,-82,-73,-131,-122,-63,-39,-34
-14,-78,-63,46,24,-70,-53,-131,-117,-63,-48,-43
-43,-82,-39,63,-2,-61,-48,-136,-117,-63,-53,-43
-43,-92,-48,68,2,-70,-48,-141,-131,-63,-58,-53
-48,-97,-48,73,0,-73,-43,-146,-136,-68,-63,-53
-48,-97,-48,73,0,-73,-43,-146,-136,-68,-63,-53
-48,-97,-48,73,0,-73,-43,-146,-131,-68,-58,-53
-53,-97,-43,75,-4,-70,-39,-146,-131,-63,-58,-53
-58,-92,-34,75,-12,-63,-34,-151,-131,-63,-58,-53
-58,-97,-39,78,-9,-68,-29,-151,-131,-63,-58,-53
-58,-97,-39,78,-9,-68,-29,-151,-126,-63,-58,-53
-63,-97,-34,80,-14,-65,-29,-151,-126,-63,-58,-48
-68,-97,-29,82,-19,-63,-29,-151,-126,-63,-58,-43
-73,-102,-29,87,-21,-65,-19,-156,-122,-63,-63,-48
-78,-117,-39,97,-19,-78,9,-122,-112,-68,-78,-63
-92,-151,-58,122,-17,-104,78,-48,-73,-92,-112,-102
-112,-170,-58,141,-26,-114,200,117,68,-82,-131,-141
-92,-92,0,92,-46,-46,287,385,307,48,-58,-112
102,117,14,-109,43,65,258,819,619,287,151,34
429,458,29,-444,200,244,19,995,863,619,473,312
746,858,112,-802,317,485,-322,761,897,956,834,619
1098,1356,258,-1227,419,807,-790,361,790,1366,1268,995
1307,1830,522,-1568,392,1176,-1146,-78,624,1722,1654,1327
1356,2254,897,-1805,229,1576,-1346,-712,248,1873,1898,1581
1293,2469,1176,-1881,58,1822,-1483,-1439,-434,1727,1893,1683
697,2034,1337,-1366,-319,1686,-1224,-2366,-1254,1122,1498,1483
82,1117,1034,-600,-475,1076,-697,-2654,-1751,278,756,936
-229,224,453,2,-341,339,-165,-2230,-1820,-453,0,307
-302,-165,136,234,-219,-14,9,-1761,-1727,-678,-273,43
-351,-385,-34,368,-158,-209,9,-1351,-1527,-736,-400,-122
-439,-522,-82,480,-178,-302,39,-1054,-1293,-712,-473,-263
-453,-614,-161,534,-146,-387,117,-795,-1058,-644,-483,-326
-375,-605,-229,490,-73,-417,244,-488,-771,-507,-419,-317
-292,-522,-229,407,-31,-375,380,-204,-512,-375,-341,-258
-200,-390,-190,295,-4,-290,366,-19,-302,-268,-244,-195
-146,-287,-141,217,-2,-214,219,-19,-195,-200,-190,-151
-112,-229,-117,170,2,-173,141,-19,-117,-151,-156,-131
-92,-170,-78,131,-7,-124,102,14,-58,-97,-117,-97
-87,-131,-43,109,-21,-87,92,53,-19,-78,-92,-73
-78,-107,-29,92,-24,-68,73,78,24,-53,-73,-68
-78,-102,-24,90,-26,-63,73,87,58,-39,-68,-63
-78,-102,-24,90,-26,-63,82,107,73,-24,-63,-63
-78,-97,-19,87,-29,-58,82,117,78,-19,-58,-63
-73,-92,-19,82,-26,-56,73,122,92,-19,-53,-63
-68,-82,-14,75,-26,-48,73,126,112,-14,-53,-58
-63,-78,-14,70,-24,-46,73,136,117,-4,-48,-58
-63,-78,-14,70,-24,-46,73,146,126,0,-43,-58
-58,-68,-9,63,-24,-39,68,146,131,0,-43,-53
-58,-63,-4,61,-26,-34,68,151,136,0,-39,-53
-53,-63,-9,58,-21,-36,68,165,156,9,-34,-53
-53,-58,-4,56,-24,-31,68,170,165,14,-29,-48
-53,-48,4,51,-29,-21,73,175,175,19,-29,-43
-53,-43,9,48,-31,-17,73,185,180,24,-29,-43
-48,-39,9,43,-29,-14,73,195,190,24,-29,-43
-43,-39,4,41,-24,-17,73,200,200,24,-24,-39
-43,-39,4,41,-24,-17,73,204,204,29,-24,-39
-43,-39,4,41,-24,-17,73,214,214,34,-24,-39
-43,-34,9,39,-26,-12,73,224,224,39,-19,-39
-39,-34,4,36,-21,-14,78,234,234,48,-19,-39
-39,-24,14,31,-26,-4,78,244,244,48,-19,-39
-34,-19,14,26,-24,-2,78,248,248,53,-19,-34
-34,-14,19,24,-26,2,82,263,258,58,-14,-34
-34,-14,19,24,-26,2,82,273,273,58,-9,-34
-29,-14,14,21,-21,0,82,283,283,63,-9,-34
-29,-14,14,21,-21,0,82,292,292,63,-9,-34
-29,-9,19,19,-24,4,82,307,302,68,-9,-34
-24,-4,19,14,-21,7,87,322,317,73,-4,-29
-24,0,24,12,-24,12,87,341,331,73,-4,-29
-19,0,19,9,-19,9,92,361,351,78,-4,-29
-9,4,14,2,-12,9,92,380,366,82,0,-24
-4,14,19,-4,-12,17,97,400,380,87,0,-24
-4,19,24,-7,-14,21,102,429,400,92,4,-24
-4,34,39,-14,-21,36,107,453,424,102,4,-24
0,39,39,-19,-19,39,112,478,444,102,4,-19
4,43,39,-24,-17,41,122,507,463,102,4,-19
4,48,43,-26,-19,46,122,531,488,112,4,-19
4,48,43,-26,-19,46,131,570,517,117,4,-19
4,58,53,-31,-24,56,131,600,541,117,9,-19
9,68,58,-39,-24,63,146,634,566,122,14,-14
9,73,63,-41,-26,68,156,668,585,122,14,-14
9,82,73,-46,-31,78,165,702,610,126,14,-14
14,87,73,-51,-29,80,170,736,634,126,14,-14
14,97,82,-56,-34,90,185,766,653,122,4,-14
9,102,92,-56,-41,97,195,795,678,112,4,-19
9,112,102,-61,-46,107,195,824,683,107,0,-24
0,112,112,-56,-56,112,209,849,697,97,-9,-24
0,117,117,-58,-58,117,214,868,707,87,-19,-24
-9,117,126,-53,-68,122,224,873,712,73,-34,-34
-14,112,126,-48,-70,119,234,873,702,53,-43,-39
-24,102,126,-39,-75,114,234,849,668,24,-63,-48
-34,92,126,-29,-80,109,234,814,629,-4,-82,-58
-43,73,117,-14,-80,95,234,761,580,-39,-107,-68
-48,53,102,-2,-75,78,224,707,522,-78,-131,-82
-53,24,78,14,-65,51,214,634,448,-117,-156,-92
-58,-4,53,31,-56,24,204,561,375,-156,-180,-107
-63,-34,29,48,-46,-2,195,488,307,-175,-195,-122
-63,-58,4,61,-34,-26,180,419,248,-190,-204,-131
-63,-73,-9,68,-26,-41,165,341,180,-204,-204,-131
-63,-82,-19,73,-21,-51,146,273,122,-209,-204,-131
-63,-102,-39,82,-12,-70,122,200,68,-204,-195,-131
-58,-112,-53,85,-2,-82,102,146,29,-200,-185,-122
-58,-112,-53,85,-2,-82,82,97,-4,-195,-175,-112
-53,-112,-58,82,2,-85,68,53,-34,-185,-156,-102
-48,-112,-63,80,7,-87,53,9,-48,-156,-146,-97
-39,-112,-73,75,17,-92,34,-14,-58,-126,-126,-82
-34,-107,-73,70,19,-90,19,-34,-73,-112,-107,-73
-34,-102,-68,68,17,-85,9,-53,-87,-97,-102,-68
-34,-97,-63,65,14,-80,-4,-78,-87,-92,-92,-63
-34,-92,-58,63,12,-75,-14,-92,-87,-78,-78,-53
-29,-92,-63,61,17,-78,-14,-97,-87,-68,-58,-53
-29,-87,-58,58,14,-73,-19,-102,-92,-63,-43,-48
-29,-87,-58,58,14,-73,-19,-102,-92,-63,-43,-43
-29,-87,-58,58,14,-73,-24,-102,-92,-58,-43,-39
-29,-82,-53,56,12,-68,-24,-102,-92,-48,-39,-39
-29,-78,-48,53,9,-63,-24,-102,-92,-48,-34,-39
-24,-73,-48,48,12,-61,-24,-102,-87,-43,-39,-39
-24,-68,-43,46,9,-56,-24,-102,-87,-43,-43,-39
-24,-68,-43,46,9,-56,-24,-102,-87,-43,-39,-39
-24,-63,-39,43,7,-51,-24,-97,-82,-39,-39,-34
-24,-63,-39,43,7,-51,-24,-97,-78,-39,-39,-34
-24,-63,-39,43,7,-51,-24,-92,-78,-39,-39,-34
-24,-63,-39,43,7,-51,-19,-92,-78,-39,-39,-34
-24,-63,-39,43,7,-51,-19,-92,-78,-39,-39,-34
-24,-68,-43,46,9,-56,-19,-92,-73,-34,-39,-29
-24,-68,-43,46,9,-56,-19,-87,-63,-24,-34,-24
-24,-68,-43,46,9,-56,-19,-82,-63,-24,-34,-24
-24,-68,-43,46,9,-56,-19,-82,-58,-24,-34,-24
-24,-68,-43,46,9,-56,-14,-82,-58,-24,-29,-24
-24,-68,-43,46,9,-56,-9,-82,-58,-24,-24,-24
-24,-68,-43,46,9,-56,-9,-78,-58,-19,-24,-24
-24,-68,-43,46,9,-56,-9,-73,-58,-19,-24,-24
-24,-68,-43,46,9,-56,-9,-73,-58,-29,-24,-29
-24,-68,-43,46,9,-56,-9,-73,-58,-34,-24,-34
-24,-68,-43,46,9,-56,-9,-78,-58,-34,-24,-34
-29,-73,-43,51,7,-58,-9,-82,-58,-34,-29,-34
-29,-73,-43,51,7,-58,-9,-82,-63,-34,-29,-34
-29,-68,-39,48,4,-53,-9,-82,-68,-34,-24,-34
-29,-63,-34,46,2,-48,-9,-87,-68,-34,-29,-34
-29,-58,-29,43,0,-43,-9,-87,-73,-39,-34,-34
-29,-63,-34,46,2,-48,-14,-87,-68,-39,-39,-34
-29,-63,-34,46,2,-48,-19,-87,-68,-39,-39,-34
-29,-68,-39,48,4,-53,-19,-87,-68,-39,-43,-34
-29,-68,-39,48,4,-53,-19,-92,-68,-39,-43,-34
-29,-68,-39,48,4,-53,-19,-92,-73,-39,-43,-34
-29,-68,-39,48,4,-53,-19,-92,-73,-39,-43,-34
-29,-73,-43,51,7,-58,-14,-97,-78,-39,-43,-34
-29,-78,-48,53,9,-63,-14,-97,-78,-34,-43,-34
-29,-78,-48,53,9,-63,-14,-102,-78,-34,-43,-39
-29,-78,-48,53,9,-63,-14,-102,-82,-39,-43,-39
-29,-78,-48,53,9,-63,-19,-107,-82,-43,-48,-39
-29,-82,-53,56,12,-68,-19,-107,-82,-48,-48,-39
-34,-82,-48,58,7,-65,-19,-107,-87,-48,-48,-39
-34,-82,-48,58,7,-65,-19,-112,-87,-48,-48,-39
-34,-82,-48,58,7,-65,-19,-112,-92,-48,-43,-39
-34,-82,-48,58,7,-65,-19,-112,-92,-53,-39,-39
-34,-82,-48,58,7,-65,-24,-117,-97,-53,-39,-39
-34,-82,-48,58,7,-65,-24,-117,-97,-53,-39,-39
-34,-82,-48,58,7,-65,-24,-117,-97,-53,-43,-39
-34,-82,-48,58,7,-65,-24,-122,-97,-53,-48,-34
-34,-82,-48,58,7,-65,-24,-122,-97,-53,-48,-34
-34,-82,-48,58,7,-65,-24,-122,-97,-53,-48,-34
-34,-82,-48,58,7,-65,-29,-122,-102,-53,-48,-34
-34,-82,-48,58,7,-65,-34,-122,-102,-53,-48,-34
-34,-87,-53,61,9,-70,-34,-126,-107,-53,-48,-34
-34,-87,-53,61,9,-70,-34,-126,-112,-58,-48,-34
-34,-82,-48,58,7,-65,-29,-126,-112,-58,-48,-34
-34,-78,-43,56,4,-61,-29,-126,-117,-58,-43,-34
-34,-78,-43,56,4,-61,-29,-131,-117,-58,-43,-34
-34,-78,-43,56,4,-61,-29,-131,-117,-58,-43,-34
-34,-78,-43,56,4,-61,-34,-131,-117,-58,-43,-34
-39,-78,-39,58,0,-58,-34,-131,-117,-58,-43,-34
-39,-78,-39,58,0,-58,-34,-131,-117,-58,-43,-34
-39,-78,-39,58,0,-58,-34,-131,-117,-58,-43,-34
-34,-78,-43,56,4,-61,-39,-136,-117,-58,-48,-39
-34,-78,-43,56,4,-61,-43,-141,-112,-58,-48,-43
-29,-78,-48,53,9,-63,-43,-136,-112,-53,-48,-43
-29,-82,-53,56,12,-68,-43,-136,-112,-53,-48,-39
-34,-82,-48,58,7,-65,-43,-136,-117,-58,-48,-39
-34,-82,-48,58,7,-65,-43,-136,-122,-63,-48,-39
-39,-82,-43,61,2,-63,-43,-136,-122,-63,-48,-39
-43,-87,-43,65,0,-65,-43,-141,-122,-63,-48,-39
-43,-87,-43,65,0,-65,-39,-141,-112,-68,-48,-39
-43,-82,-39,63,-2,-61,-39,-136,-122,-63,-43,-39
-43,-82,-39,63,-2,-61,-39,-141,-122,-58,-48,-39
-39,-82,-43,61,2,-63,-39,-146,-117,-58,-53,-39
-43,-92,-48,68,2,-70,-34,-146,-117,-63,-48,-43
-39,-82,-43,61,2,-63,-34,-146,-117,-63,-48,-39
-34,-82,-48,58,7,-65,-39,-136,-117,-63,-48,-39
-34,-82,-48,58,7,-65,-39,-131,-112,-58,-39,-34
-34,-82,-48,58,7,-65,-39,-131,-107,-53,-43,-39
-34,-82,-48,58,7,-65,-39,-131,-107,-53,-53,-43
-34,-82,-48,58,7,-65,-34,-126,-107,-48,-48,-39
-39,-87,-48,63,4,-68,-29,-126,-107,-48,-48,-39
-39,-87,-48,63,4,-68,-29,-126,-102,-48,-48,-39
-39,-87,-48,63,4,-68,-29,-126,-97,-48,-48,-39
-34,-82,-48,58,7,-65,-24,-117,-92,-48,-48,-39
-24,-73,-48,48,12,-61,-14,-107,-87,-39,-43,-34
-14,-68,-53,41,19,-61,-9,-97,-82,-34,-39,-34
-4,-68,-63,36,29,-65,4,-82,-73,-29,-39,-29
0,-73,-73,36,36,-73,19,-78,-68,-29,-39,-29
9,-68,-78,29,43,-73,29,-63,-53,-29,-34,-29
9,-58,-68,24,39,-63,43,-39,-39,-19,-34,-24
24,-34,-58,4,41,-46,58,-29,-24,0,-14,-9
48,-4,-53,-21,51,-29,34,-29,-24,0,-4,-4
63,4,-58,-34,61,-26,29,-24,-24,0,0,4
82,-9,-92,-36,87,-51,14,-9,-19,0,0,4
102,-19,-122,-41,112,-70,4,0,-29,-9,-9,0
112,-19,-131,-46,122,-75,4,-4,-39,-19,-14,0
117,-19,-136,-48,126,-78,-14,-14,-53,-24,-14,0
107,-9,-117,-48,112,-63,-24,-39,-68,-29,-14,9
97,-24,-122,-36,109,-73,-39,-78,-87,-43,-24,-4
82,-34,-117,-24,100,-75,-68,-112,-102,-43,-29,-9
87,-34,-122,-26,104,-78,-87,-131,-112,-43,-29,-9
97,-34,-131,-31,114,-82,-97,-117,-117,-43,-24,-9
117,-34,-151,-41,134,-92,-102,-117,-117,-48,-24,-9
126,-19,-146,-53,136,-82,-102,-117,-112,-48,-24,-9
131,-14,-146,-58,139,-80,-102,-112,-117,-53,-29,-9
126,-24,-151,-51,139,-87,-102,-126,-117,-58,-34,-14
117,-34,-151,-41,134,-92,-107,-136,-126,-63,-39,-14
92,-39,-131,-26,112,-85,-102,-141,-136,-63,-39,-14
78,-48,-126,-14,102,-87,-97,-146,-141,-63,-39,-19
63,-58,-122,-2,92,-90,-87,-146,-136,-63,-39,-24
39,-63,-102,12,70,-82,-73,-141,-131,-63,-39,-24
0,-68,-68,34,34,-68,-53,-141,-122,-63,-43,-34
-34,-73,-39,53,2,-56,-48,-146,-117,-63,-43,-34
-34,-82,-48,58,7,-65,-48,-151,-126,-63,-48,-43
-39,-87,-48,63,4,-68,-43,-156,-126,-68,-53,-43
-43,-87,-43,65,0,-65,-43,-156,-126,-68,-53,-43
-48,-87,-39,68,-4,-63,-43,-156,-122,-68,-48,-43
-53,-92,-39,73,-7,-65,-39,-151,-122,-63,-48,-43
-58,-92,-34,75,-12,-63,-34,-151,-122,-63,-48,-43
-58,-97,-39,78,-9,-68,-29,-151,-126,-63,-48,-43
-58,-97,-39,78,-9,-68,-29,-151,-126,-63,-48,-43
-63,-92,-29,78,-17,-61,-29,-151,-126,-63,-48,-43
-68,-87,-19,78,-24,-53,-29,-151,-126,-63,-48,-43
-73,-92,-19,82,-26,-56,-34,-165,-126,-63,-53,-48
-78,-107,-29,92,-24,-68,-19,-141,-122,-68,-68,-63
-102,-151,-48,126,-26,-100,48,-97,-122,-112,-112,-102
-131,-180,-48,156,-41,-114,170,39,-19,-122,-141,-141
-146,-151,-4,148,-70,-78,297,292,200,-34,-112,-151
14,9,-4,-12,9,2,307,712,492,161,53,-43
341,307,-34,-324,187,136,122,985,780,444,326,190
658,663,4,-661,326,334,-165,849,858,732,639,453
1063,1156,92,-1110,485,624,-658,488,810,1146,1078,844
1327,1625,297,-1476,514,961,-1039,87,702,1507,1468,1190
1439,2127,688,-1783,375,1407,-1293,-502,434,1756,1786,1493
1439,2420,980,-1930,229,1700,-1483,-1185,-141,1708,1854,1644
863,2137,1273,-1500,-204,1705,-1302,-2259,-1024,1215,1581,1546
268,1371,1102,-819,-417,1237,-854,-2693,-1586,483,961,1102
-131,385,517,-126,-324,451,-263,-2352,-1751,-346,117,409
-292,-97,195,195,-244,48,-29,-1966,-1756,-668,-244,82
-351,-326,24,339,-187,-151,-29,-1537,-1571,-736,-375,-82
-448,-473,-24,461,-212,-248,0,-1220,-1351,-722,-453,-224
-488,-595,-107,541,-190,-351,58,-956,-1122,-668,-483,-312
-434,-614,-180,524,-126,-397,165,-644,-839,-546,-439,-326
-336,-531,-195,434,-70,-363,346,-302,-561,-400,-351,-268
-229,-400,-170,314,-29,-285,375,-58,-331,-278,-244,-204
-165,-297,-131,231,-17,-214,224,-48,-219,-204,-185,-156
-122,-239,-117,180,-2,-178,141,-39,-136,-151,-146,-131
-102,-170,-68,136,-17,-119,107,-4,-73,-92,-107,-97
-97,-122,-24,109,-36,-73,102,34,-29,-68,-82,-73
-82,-97,-14,90,-34,-56,78,63,14,-48,-63,-68
-78,-92,-14,85,-31,-53,73,78,48,-39,-58,-63
-78,-92,-14,85,-31,-53,82,97,63,-24,-53,-58
-78,-87,-9,82,-34,-48,82,107,68,-19,-48,-53
-73,-82,-9,78,-31,-46,73,112,82,-19,-43,-53
-68,-73,-4,70,-31,-39,73,117,102,-14,-43,-48
-63,-68,-4,65,-29,-36,73,126,107,-4,-39,-48
-63,-68,-4,65,-29,-36,73,136,117,0,-34,-48
-58,-58,0,58,-29,-29,68,136,122,0,-34,-43
-58,-53,4,56,-31,-24,68,141,126,0,-29,-43
-53,-53,0,53,-26,-26,68,156,141,4,-24,-43
-53,-48,4,51,-29,-21,68,161,146,4,-19,-39
-53,-43,9,48,-31,-17,73,170,156,9,-19,-34
-53,-43,9,48,-31,-17,73,185,161,14,-19,-34
-43,-39,4,41,-24,-17,73,195,170,19,-19,-34
-34,-39,-4,36,-14,-21,73,200,180,24,-14,-29
-34,-34,0,34,-17,-17,73,204,185,29,-14,-29
-34,-29,4,31,-19,-12,73,214,195,34,-14,-29
-39,-24,14,31,-26,-4,73,224,204,34,-9,-29
-39,-24,14,31,-26,-4,78,234,214,39,-9,-29
-39,-19,19,29,-29,0,78,244,224,39,-9,-29
-34,-19,14,26,-24,-2,78,248,229,43,-9,-24
-34,-14,19,24,-26,2,82,263,239,48,-4,-24
-34,-14,19,24,-26,2,82,273,253,48,0,-24
-29,-9,19,19,-24,4,82,283,263,53,0,-24
-29,-4,24,17,-26,9,82,292,273,53,0,-24
-29,-4,24,17,-26,9,82,302,283,58,0,-24
-24,-4,19,14,-21,7,87,312,297,63,4,-19
-24,0,24,12,-24,12,87,331,307,63,4,-24
-19,0,19,9,-19,9,92,351,322,68,4,-29
-14,0,14,7,-14,7,92,370,336,73,9,-24
-14,4,19,4,-17,12,97,390,351,78,9,-24
-14,9,24,2,-19,17,102,414,366,82,14,-19
-14,24,39,-4,-26,31,107,434,385,92,14,-14
-9,29,39,-9,-24,34,112,458,405,92,19,-9
-4,34,39,-14,-21,36,122,488,424,92,24,-9
-4,43,48,-19,-26,46,122,512,448,102,24,-9
-4,48,53,-21,-29,51,131,551,478,107,24,-9
-9,58,68,-24,-39,63,131,580,502,112,24,-9
-9,68,78,-29,-43,73,146,614,527,122,24,-4
-9,73,82,-31,-46,78,156,653,551,126,24,-4
-9,82,92,-36,-51,87,165,692,580,136,24,-4
-4,87,92,-41,-48,90,170,727,605,136,29,-4
-4,97,102,-46,-53,100,185,756,624,131,24,-4
-4,102,107,-48,-56,104,195,790,653,126,19,-9
0,112,112,-56,-56,112,195,824,663,126,9,-14
-9,112,122,-51,-65,117,214,844,678,117,4,-14
-9,117,126,-53,-68,122,224,858,688,107,0,-14
-19,117,136,-48,-78,126,229,873,697,97,-14,-24
-24,112,136,-43,-80,124,234,883,692,82,-24,-29
-34,107,141,-36,-87,124,239,863,668,53,-43,-39
-43,102,146,-29,-95,124,244,834,639,24,-63,-48
-53,87,141,-17,-97,114,248,790,595,-9,-82,-58
-58,73,131,-7,-95,102,244,746,541,-48,-102,-73
-58,43,102,7,-80,73,234,673,468,-82,-122,-87
-58,14,73,21,-65,43,224,600,395,-117,-141,-107
-63,-14,48,39,-56,17,209,527,326,-146,-161,-117
-63,-39,24,51,-43,-7,190,458,268,-170,-175,-122
-68,-58,9,63,-39,-24,175,375,200,-190,-190,-126
-73,-73,0,73,-36,-36,156,302,141,-200,-204,-131
-73,-92,-19,82,-26,-56,136,224,82,-204,-195,-136
-68,-102,-34,85,-17,-68,122,165,39,-209,-185,-131
-63,-107,-43,85,-9,-75,97,112,4,-200,-175,-122
-53,-112,-58,82,2,-85,78,63,-24,-185,-156,-112
-53,-117,-63,85,4,-90,63,14,-43,-165,-146,-107
-48,-122,-73,85,12,-97,43,-14,-58,-146,-126,-92
-43,-117,-73,80,14,-95,29,-34,-68,-126,-107,-78
-43,-112,-68,78,12,-90,19,-53,-78,-107,-102,-68
-43,-107,-63,75,9,-85,4,-73,-82,-102,-87,-63
-43,-102,-58,73,7,-80,-4,-82,-87,-87,-68,-53
-34,-97,-63,65,14,-80,-4,-92,-87,-78,-58,-53
-29,-87,-58,58,14,-73,-9,-102,-92,-73,-53,-48
-29,-87,-58,58,14,-73,-14,-102,-92,-73,-48,-39
-29,-87,-58,58,14,-73,-24,-102,-92,-68,-43,-29
-29,-82,-53,56,12,-68,-29,-102,-92,-53,-39,-29
-29,-78,-48,53,9,-63,-34,-102,-92,-48,-34,-29
-24,-78,-53,51,14,-65,-34,-102,-87,-43,-34,-29
-24,-78,-53,51,14,-65,-34,-102,-87,-43,-34,-29
-24,-73,-48,48,12,-61,-29,-102,-87,-43,-29,-29
-24,-63,-39,43,7,-51,-24,-97,-82,-39,-29,-24
-24,-63,-39,43,7,-51,-24,-97,-78,-34,-29,-24
-24,-63,-39,43,7,-51,-24,-92,-78,-29,-29,-24
-24,-63,-39,43,7,-51,-19,-92,-78,-29,-29,-24
-24,-63,-39,43,7,-51,-19,-92,-78,-29,-29,-24
-24,-68,-43,46,9,-56,-19,-92,-78,-29,-29,-24
-24,-68,-43,46,9,-56,-19,-87,-73,-24,-24,-24
-24,-73,-48,48,12,-61,-19,-82,-73,-24,-24,-24
-24,-78,-53,51,14,-65,-19,-82,-68,-24,-24,-24
-24,-78,-53,51,14,-65,-19,-82,-68,-29,-24,-24
-24,-78,-53,51,14,-65,-19,-82,-68,-34,-24,-24
-24,-73,-48,48,12,-61,-19,-82,-68,-29,-24,-24
-24,-68,-43,46,9,-56,-19,-82,-68,-29,-24,-24
-24,-68,-43,46,9,-56,-19,-82,-68,-34,-24,-24
-24,-68,-43,46,9,-56,-19,-82,-68,-34,-24,-24
-24,-68,-43,46,9,-56,-19,-82,-68,-34,-24,-29
-29,-73,-43,51,7,-58,-19,-82,-68,-34,-29,-34
-29,-73,-43,51,7,-58,-14,-82,-68,-34,-29,-34
-29,-68,-39,48,4,-53,-9,-82,-68,-34,-24,-34
-29,-68,-39,48,4,-53,-9,-87,-68,-34,-24,-34
-29,-68,-39,48,4,-53,-9,-87,-73,-39,-24,-34
-29,-73,-43,51,7,-58,-9,-87,-73,-39,-29,-34
-29,-73,-43,51,7,-58,-9,-87,-78,-39,-29,-34
-34,-78,-43,56,4,-61,-9,-87,-78,-39,-34,-34
-39,-78,-39,58,0,-58,-9,-92,-78,-39,-34,-34
-39,-78,-39,58,0,-58,-9,-97,-82,-39,-34,-34
-39,-78,-39,58,0,-58,-9,-102,-82,-39,-34,-34
-34,-78,-43,56,4,-61,-9,-107,-87,-43,-34,-34
-29,-78,-48,53,9,-63,-14,-107,-87,-43,-34,-34
-29,-78,-48,53,9,-63,-14,-107,-87,-39,-34,-39
-29,-78,-48,53,9,-63,-14,-102,-92,-39,-34,-39
-29,-78,-48,53,9,-63,-24,-107,-92,-39,-39,-39
-29,-82,-53,56,12,-68,-29,-107,-92,-39,-39,-39
-34,-82,-48,58,7,-65,-29,-107,-97,-43,-39,-39
-34,-82,-48,58,7,-65,-29,-112,-97,-48,-39,-39
-39,-82,-43,61,2,-63,-24,-117,-102,-48,-39,-39
-43,-82,-39,63,-2,-61,-19,-122,-102,-53,-39,-39
-43,-82,-39,63,-2,-61,-24,-126,-107,-53,-39,-39
-43,-82,-39,63,-2,-61,-24,-126,-107,-53,-39,-39
-43,-82,-39,63,-2,-61,-29,-126,-107,-53,-39,-43
-43,-82,-39,63,-2,-61,-34,-131,-107,-53,-39,-43
-43,-82,-39,63,-2,-61,-34,-126,-107,-53,-39,-39
-43,-82,-39,63,-2,-61,-34,-122,-107,-53,-39,-34
-43,-82,-39,63,-2,-61,-34,-122,-112,-53,-39,-34
-43,-82,-39,63,-2,-61,-34,-122,-112,-53,-39,-34
-39,-87,-48,63,4,-68,-34,-126,-112,-53,-39,-34
-34,-87,-53,61,9,-70,-34,-126,-112,-58,-39,-34
-34,-87,-53,61,9,-70,-29,-126,-112,-58,-43,-39
-34,-87,-53,61,9,-70,-29,-126,-117,-58,-43,-43
-34,-87,-53,61,9,-70,-29,-131,-117,-53,-43,-43
-34,-87,-53,61,9,-70,-29,-131,-117,-48,-43,-43
-34,-87,-53,61,9,-70,-34,-131,-117,-48,-43,-43
-39,-87,-48,63,4,-68,-34,-131,-117,-48,-43,-43
-43,-87,-43,65,0,-65,-34,-131,-117,-53,-43,-43
-48,-87,-39,68,-4,-63,-34,-131,-117,-58,-43,-43
-43,-92,-48,68,2,-70,-34,-136,-122,-58,-43,-43
-43,-97,-53,70,4,-75,-34,-141,-122,-58,-39,-43
-39,-92,-53,65,7,-73,-39,-136,-122,-53,-39,-43
-39,-92,-53,65,7,-73,-43,-136,-122,-53,-39,-39
-43,-87,-43,65,0,-65,-43,-136,-122,-53,-39,-39
-43,-82,-39,63,-2,-61,-43,-136,-122,-53,-39,-39
-43,-82,-39,63,-2,-61,-43,-136,-122,-53,-39,-39
-43,-87,-43,65,0,-65,-43,-141,-122,-53,-39,-39
-43,-87,-43,65,0,-65,-39,-146,-112,-58,-43,-39
-43,-82,-39,63,-2,-61,-39,-146,-122,-53,-43,-39
-48,-82,-34,65,-7,-58,-39,-146,-126,-48,-43,-43
-48,-82,-34,65,-7,-58,-39,-146,-126,-48,-43,-48
-53,-92,-39,73,-7,-65,-39,-141,-126,-53,-39,-48
-48,-82,-34,65,-7,-58,-43,-136,-126,-53,-39,-39
-48,-82,-34,65,-7,-58,-34,-136,-122,-48,-43,-39
-48,-87,-39,68,-4,-63,-29,-136,-117,-48,-48,-39
-43,-87,-43,65,0,-65,-29,-131,-112,-48,-43,-39
-39,-87,-48,63,4,-68,-29,-126,-107,-48,-39,-39
-39,-82,-43,61,2,-63,-29,-122,-107,-48,-39,-39
-34,-78,-43,56,4,-61,-24,-112,-102,-43,-34,-39
-34,-78,-43,56,4,-61,-19,-107,-97,-43,-34,-39
-24,-68,-43,46,9,-56,-9,-97,-92,-34,-24,-34
-9,-68,-58,39,24,-63,9,-82,-78,-29,-19,-29
0,-68,-68,34,34,-68,29,-78,-68,-29,-19,-29
9,-53,-63,21,36,-58,43,-63,-53,-29,-14,-29
9,-39,-48,14,29,-43,48,-43,-39,-19,-14,-24
29,-14,-43,-7,36,-29,48,-39,-29,0,4,-9
58,4,-53,-31,56,-24,24,-39,-34,0,9,-9
73,4,-68,-39,70,-31,19,-29,-34,0,9,-4
87,-9,-97,-39,92,-53,4,-19,-39,0,9,-4
102,-19,-122,-41,112,-70,-4,-14,-48,-9,0,-9
107,-19,-126,-43,117,-73,-9,-24,-53,-19,-4,-9
107,-19,-126,-43,117,-73,-34,-43,-73,-24,-4,-9
97,-9,-107,-43,102,-58,-43,-68,-87,-29,-4,0
87,-24,-112,-31,100,-68,-58,-117,-112,-43,-14,-14
78,-34,-112,-21,95,-73,-78,-141,-122,-43,-19,-14
87,-34,-122,-26,104,-78,-87,-141,-122,-43,-19,-9
97,-34,-131,-31,114,-82,-97,-126,-126,-43,-14,-9
117,-39,-156,-39,136,-97,-102,-122,-126,-48,-14,-4
117,-34,-151,-41,134,-92,-102,-122,-126,-48,-14,0
112,-34,-146,-39,129,-90,-102,-122,-136,-53,-19,0
102,-43,-146,-29,124,-95,-97,-136,-136,-58,-24,-9
92,-48,-141,-21,117,-95,-102,-156,-146,-63,-29,-14
73,-48,-122,-12,97,-85,-97,-165,-146,-63,-34,-14
58,-58,-117,0,87,-87,-87,-156,-141,-63,-39,-19
34,-68,-102,17,68,-85,-78,-146,-136,-63,-39,-24
-4,-78,-73,41,34,-75,-58,-141,-131,-63,-39,-29
-29,-87,-58,58,14,-73,-39,-141,-126,-63,-43,-43
-43,-92,-48,68,2,-70,-39,-146,-126,-63,-43,-43
-43,-97,-53,70,4,-75,-39,-151,-136,-63,-48,-53
-48,-97,-48,73,0,-73,-34,-156,-136,-68,-53,-53
-48,-97,-48,73,0,-73,-34,-156,-136,-68,-53,-53
-48,-97,-48,73,0,-73,-34,-161,-131,-68,-48,-53
-53,-102,-48,78,-2,-75,-29,-161,-131,-63,-48,-53
-63,-97,-34,80,-14,-65,-24,-161,-131,-63,-48,-53
-68,-97,-29,82,-19,-63,-19,-161,-131,-63,-48,-53
-68,-97,-29,82,-19,-63,-19,-156,-126,-63,-48,-53
-73,-97,-24,85,-24,-61,-19,-151,-126,-63,-48,-53
-73,-97,-24,85,-24,-61,-19,-151,-122,-63,-48,-53
-73,-102,-29,87,-21,-65,-4,-136,-102,-63,-53,-58
-73,-117,-43,95,-14,-80,29,-68,-68,-63,-63,-73